Full Time,19.876843452453613
Full Distance,2640
Base Speed,2.5
nt,error[mm],angle[rad],distance[mm],rw_speed[rad/s],lw_speeed[rad/s],pozyx_x_1,pozyx_y_1,pozyx_rot_y_1,pozyx_x_2,pozyx_y_2,pozyx_rot_2
0,1644503942.060637,570.0,515.0,0.21664749197996888,500.0,-55.0,-0.27490984148067255,716.6474919799689,0.0,0.0,1.82,1.35,-0.169921875,1.82,1.35,-0.169921875
1,1644503942.0833256,570.0,515.0,0.21658080106710806,500.0,-55.0,-0.27490984148067255,716.580801067108,0.0,0.0,1.82,1.35,-0.169921875,1.82,1.35,-0.169921875
2,1644503942.1028314,570.0,515.0,0.21658080106710806,500.0,-55.0,-0.27490984148067255,716.580801067108,0.0,0.0,1.82,1.35,-0.169921875,1.82,1.35,-0.169921875
3,1644503942.1211798,570.0,515.0,0.2170039095275473,500.0,-55.0,-0.27490984148067255,717.0039095275473,0.0,0.0,1.82,1.35,-0.169921875,1.82,1.35,-0.169921875
4,1644503942.145739,570.0,515.0,0.218067825992694,500.0,-55.0,-0.27490984148067255,718.067825992694,0.0,0.0,1.82,1.35,-0.169921875,1.82,1.35,-0.169921875
5,1644503942.1541905,571.0,515.0,0.218067825992694,500.0,-56.0,-0.2796537543183254,718.067825992694,0.0,0.0,1.82,1.35,-0.169921875,1.82,1.35,-0.169921875
6,1644503942.1841414,571.0,515.0,0.21471407400192483,500.0,-56.0,-0.2796537543183254,714.7140740019248,0.08014675229787827,0.08014675229787827,1.82,1.35,-0.169921875,1.82,1.35,-0.169921875
7,1644503942.2031047,571.0,515.0,0.21471407400192483,500.0,-56.0,-0.2796537543183254,714.7140740019248,0.32058700919151306,0.3606604039669037,1.82,1.35,-0.169921875,1.82,1.35,-0.169921875
8,1644503942.210646,566.0,515.0,0.21471407400192483,500.0,-51.0,-0.25580856461537194,714.7140740019248,0.32058700919151306,0.3606604039669037,1.82,1.35,-0.169921875,1.82,1.35,-0.169921875
9,1644503942.2189796,566.0,515.0,0.21471407400192483,500.0,-51.0,-0.25580856461537194,714.7140740019248,0.9617609977722168,1.3624945878982544,1.82,1.35,-0.169921875,1.82,1.35,-0.169921875
10,1644503942.2275522,566.0,515.0,0.21471407400192483,500.0,-51.0,-0.25580856461537194,714.7140740019248,0.9617609977722168,1.3624945878982544,1.82,1.35,-0.169921875,1.82,1.35,-0.169921875
11,1644503942.241952,566.0,515.0,0.21471407400192483,500.0,-51.0,-0.25580856461537194,714.7140740019248,0.9617609977722168,1.3624945878982544,1.82,1.35,-0.169921875,1.82,1.35,-0.169921875
12,1644503942.246325,566.0,515.0,0.21658080106710806,500.0,-51.0,-0.25580856461537194,716.580801067108,1.0819811820983887,1.6830817461013794,1.82,1.35,-0.169921875,1.82,1.35,-0.169921875
13,1644503942.253639,566.0,515.0,0.21549012917404128,500.0,-51.0,-0.25580856461537194,715.4901291740413,1.0819811820983887,1.6830817461013794,1.82,1.35,-0.169921875,1.82,1.35,-0.169921875
14,1644503942.256517,570.0,515.0,0.21549012917404128,500.0,-55.0,-0.27490984148067255,715.4901291740413,1.0819811820983887,1.6830817461013794,1.82,1.35,-0.169921875,1.82,1.35,-0.169921875
15,1644503942.259186,570.0,513.0,0.21549012917404128,500.0,-57.0,-0.28438477659385886,715.4901291740413,1.402567982673645,2.2441091537475586,1.82,1.35,-0.169921875,1.82,1.35,-0.169921875
16,1644503942.266667,570.0,513.0,0.21549012917404128,500.0,-57.0,-0.28438477659385886,715.4901291740413,1.402567982673645,2.2441091537475586,1.82,1.35,-0.169921875,1.82,1.35,-0.169921875
17,1644503942.2747302,570.0,513.0,0.21549012917404128,500.0,-57.0,-0.28438477659385886,715.4901291740413,1.402567982673645,2.2441091537475586,1.82,1.35,-0.169921875,1.82,1.35,-0.169921875
18,1644503942.2988296,570.0,513.0,0.21549012917404128,500.0,-57.0,-0.28438477659385886,715.4901291740413,1.8433752059936523,3.005502939224243,1.82,1.35,-0.169921875,1.82,1.35,-0.169921875
19,1644503942.30757,570.0,513.0,0.21549012917404128,500.0,-57.0,-0.28438477659385886,715.4901291740413,2.1238889694213867,3.446310043334961,1.82,1.35,-0.169921875,1.82,1.35,-0.169921875
20,1644503942.3103323,570.0,513.0,0.21549012917404128,500.0,-57.0,-0.28438477659385886,715.4901291740413,2.1238889694213867,3.446310043334961,1.82,1.35,-0.169921875,1.82,1.35,-0.169921875
21,1644503942.3132107,570.0,513.0,0.21710409597081695,500.0,-57.0,-0.28438477659385886,717.104095970817,2.1238889694213867,3.446310043334961,1.82,1.35,-0.169921875,1.82,1.35,-0.169921875
22,1644503942.315824,570.0,513.0,0.21710409597081695,500.0,-57.0,-0.28438477659385886,717.104095970817,2.1238889694213867,3.446310043334961,1.82,1.35,-0.169921875,1.82,1.35,-0.169921875
23,1644503942.3189301,570.0,516.0,0.21710409597081695,500.0,-54.0,-0.270153199711405,717.104095970817,2.4444758892059326,3.847043991088867,1.82,1.35,-0.169921875,1.82,1.35,-0.169921875
24,1644503942.321279,570.0,516.0,0.21710409597081695,500.0,-54.0,-0.270153199711405,717.104095970817,2.4444758892059326,3.847043991088867,1.82,1.35,-0.169921875,1.82,1.35,-0.169921875
25,1644503942.3233376,570.0,516.0,0.21710409597081695,500.0,-54.0,-0.270153199711405,717.104095970817,2.4444758892059326,3.847043991088867,1.82,1.35,-0.169921875,1.82,1.35,-0.169921875
26,1644503942.3243906,570.0,516.0,0.21710409597081695,500.0,-54.0,-0.270153199711405,717.104095970817,2.4444758892059326,3.847043991088867,1.82,1.35,-0.169921875,1.82,1.35,-0.169921875
27,1644503942.3255754,570.0,516.0,0.2175432507430944,500.0,-54.0,-0.270153199711405,717.5432507430944,2.4444758892059326,3.847043991088867,1.82,1.35,-0.169921875,1.82,1.35,-0.169921875
28,1644503942.3266551,570.0,516.0,0.2175432507430944,500.0,-54.0,-0.270153199711405,717.5432507430944,2.4444758892059326,3.847043991088867,1.82,1.35,-0.169921875,1.82,1.35,-0.169921875
29,1644503942.3278098,571.0,516.0,0.2175432507430944,500.0,-55.0,-0.27490984148067255,717.5432507430944,2.4444758892059326,3.847043991088867,1.82,1.35,-0.169921875,1.82,1.35,-0.169921875
30,1644503942.3502042,571.0,516.0,0.2175432507430944,500.0,-55.0,-0.27490984148067255,717.5432507430944,2.724989652633667,4.04741096496582,1.82,1.35,-0.169921875,1.82,1.35,-0.169921875
31,1644503942.353229,571.0,516.0,0.2175432507430944,500.0,-55.0,-0.27490984148067255,717.5432507430944,2.724989652633667,4.04741096496582,1.82,1.35,-0.169921875,1.82,1.35,-0.169921875
32,1644503942.3565266,571.0,516.0,0.2175432507430944,500.0,-55.0,-0.27490984148067255,717.5432507430944,2.845209836959839,4.00733757019043,1.82,1.35,-0.169921875,1.82,1.35,-0.169921875
33,1644503942.3590374,571.0,516.0,0.2175432507430944,500.0,-55.0,-0.27490984148067255,717.5432507430944,2.845209836959839,4.00733757019043,1.82,1.35,-0.169921875,1.82,1.35,-0.169921875
34,1644503942.3659408,571.0,516.0,0.2175432507430944,500.0,-55.0,-0.27490984148067255,717.5432507430944,2.845209836959839,4.00733757019043,1.82,1.35,-0.169921875,1.82,1.35,-0.169921875
35,1644503942.390291,571.0,516.0,0.21857747569635513,500.0,-55.0,-0.27490984148067255,718.5774756963551,3.125723123550415,3.526456832885742,1.82,1.35,-0.169921875,1.82,1.35,-0.169921875
36,1644503942.405128,571.0,516.0,0.21857747569635513,500.0,-55.0,-0.27490984148067255,718.5774756963551,3.4062368869781494,3.245943307876587,1.82,1.35,-0.169921875,1.82,1.35,-0.169921875
37,1644503942.42561,571.0,518.0,0.21857747569635513,500.0,-53.0,-0.2653839938134022,718.5774756963551,3.766897201538086,3.0055034160614014,1.82,1.35,-0.169921875,1.82,1.35,-0.169921875
38,1644503942.4376457,571.0,518.0,0.21857747569635513,500.0,-53.0,-0.2653839938134022,718.5774756963551,3.766897201538086,3.0055034160614014,1.82,1.35,-0.169921875,1.82,1.35,-0.169921875
39,1644503942.4416096,571.0,518.0,0.21658429448720415,500.0,-53.0,-0.2653839938134022,716.5842944872041,3.967264175415039,3.045576333999634,1.82,1.35,-0.169921875,1.82,1.35,-0.169921875
40,1644503942.449461,571.0,518.0,0.21658429448720415,500.0,-53.0,-0.2653839938134022,716.5842944872041,3.967264175415039,3.045576333999634,1.82,1.35,-0.169921875,1.82,1.35,-0.169921875
41,1644503942.4736764,567.0,518.0,0.21658429448720415,500.0,-49.0,-0.24618493515939638,716.5842944872041,4.327924728393555,3.326090097427368,1.82,1.35,-0.169921875,1.82,1.35,-0.169921875
42,1644503942.4829743,567.0,518.0,0.21658429448720415,500.0,-49.0,-0.24618493515939638,716.5842944872041,4.888951778411865,3.8069705963134766,1.82,1.35,-0.169921875,1.82,1.35,-0.169921875
43,1644503942.4866939,567.0,518.0,0.21658429448720415,500.0,-49.0,-0.24618493515939638,716.5842944872041,4.888951778411865,3.8069705963134766,1.82,1.35,-0.169921875,1.82,1.35,-0.169921875
44,1644503942.495632,567.0,518.0,0.21658429448720415,500.0,-49.0,-0.24618493515939638,716.5842944872041,5.009171962738037,3.967264175415039,1.82,1.35,-0.169921875,1.82,1.35,-0.169921875
45,1644503942.5196455,567.0,518.0,0.22195263062313472,500.0,-49.0,-0.24618493515939638,721.9526306231347,5.009171962738037,3.967264175415039,1.82,1.35,-0.169921875,1.82,1.35,-0.169921875
46,1644503942.5230653,567.0,518.0,0.22195263062313472,500.0,-49.0,-0.24618493515939638,721.9526306231347,5.009171962738037,3.967264175415039,1.82,1.35,-0.169921875,1.82,1.35,-0.169921875
47,1644503942.5380263,573.0,523.0,0.22195263062313472,500.0,-50.0,-0.25100268664303466,721.9526306231347,4.888951778411865,3.9271907806396484,1.82,1.35,-0.169921875,1.82,1.35,-0.169921875
48,1644503942.5524902,573.0,523.0,0.22195263062313472,500.0,-50.0,-0.25100268664303466,721.9526306231347,4.848878383636475,3.9271907806396484,1.82,1.35,-0.169921875,1.82,1.35,-0.169921875
49,1644503942.5747883,573.0,523.0,0.22283841456948494,500.0,-50.0,-0.25100268664303466,722.8384145694849,4.929025173187256,3.967264175415039,1.82,1.35,-0.169921875,1.82,1.35,-0.169921875
50,1644503942.5837698,573.0,523.0,0.2253324187037067,500.0,-50.0,-0.25100268664303466,725.3324187037067,5.169465065002441,3.967264175415039,1.82,1.35,-0.169921875,1.82,1.35,-0.169921875
51,1644503942.5920799,573.0,525.0,0.2253324187037067,500.0,-48.0,-0.2413554905754038,725.3324187037067,5.169465065002441,3.967264175415039,1.82,1.35,-0.169921875,1.82,1.35,-0.169921875
52,1644503942.5950549,578.0,525.0,0.2253324187037067,500.0,-53.0,-0.2653839938134022,725.3324187037067,5.169465065002441,3.967264175415039,1.82,1.35,-0.169921875,1.82,1.35,-0.169921875
53,1644503942.602821,578.0,525.0,0.2253324187037067,500.0,-53.0,-0.2653839938134022,725.3324187037067,5.169465065002441,3.967264175415039,1.82,1.35,-0.169921875,1.82,1.35,-0.169921875
54,1644503942.6110997,578.0,525.0,0.2253324187037067,500.0,-53.0,-0.2653839938134022,725.3324187037067,5.449979305267334,4.087484359741211,1.82,1.35,-0.169921875,1.82,1.35,-0.169921875
55,1644503942.6256967,578.0,525.0,0.22929561831703335,500.0,-53.0,-0.2653839938134022,729.2956183170334,5.570199489593506,4.247777462005615,1.82,1.35,-0.169921875,1.82,1.35,-0.169921875
56,1644503942.629206,578.0,525.0,0.22929561831703335,500.0,-53.0,-0.2653839938134022,729.2956183170334,5.570199489593506,4.247777462005615,1.82,1.35,-0.169921875,1.82,1.35,-0.169921875
57,1644503942.6325638,578.0,534.0,0.22929561831703335,500.0,-44.0,-0.22192449595683528,729.2956183170334,5.570199489593506,4.247777462005615,1.82,1.35,-0.169921875,1.82,1.35,-0.169921875
58,1644503942.641174,578.0,534.0,0.22929561831703335,500.0,-44.0,-0.22192449595683528,729.2956183170334,5.570199489593506,4.247777462005615,1.82,1.35,-0.169921875,1.82,1.35,-0.169921875
59,1644503942.648884,578.0,534.0,0.22929561831703335,500.0,-44.0,-0.22192449595683528,729.2956183170334,5.770566463470459,4.167631149291992,1.82,1.35,-0.169921875,1.82,1.35,-0.169921875
60,1644503942.6517427,578.0,534.0,0.22929561831703335,500.0,-44.0,-0.22192449595683528,729.2956183170334,5.770566463470459,4.167631149291992,1.82,1.35,-0.169921875,1.82,1.35,-0.169921875
61,1644503942.6630564,578.0,534.0,0.22929561831703335,500.0,-44.0,-0.22192449595683528,729.2956183170334,5.770566463470459,4.167631149291992,1.82,1.35,-0.169921875,1.82,1.35,-0.169921875
62,1644503942.6768963,578.0,534.0,0.22929561831703335,500.0,-44.0,-0.22192449595683528,729.2956183170334,5.890786647796631,4.247777462005615,1.82,1.35,-0.169921875,1.82,1.35,-0.169921875
63,1644503942.681046,578.0,534.0,0.2321238817434073,500.0,-44.0,-0.22192449595683528,732.1238817434073,5.890786647796631,4.247777462005615,1.82,1.35,-0.169921875,1.82,1.35,-0.169921875
64,1644503942.684335,578.0,534.0,0.23582773903846635,500.0,-44.0,-0.22192449595683528,735.8277390384663,5.890786647796631,4.247777462005615,1.82,1.35,-0.169921875,1.82,1.35,-0.169921875
65,1644503942.6875546,578.0,544.0,0.23582773903846635,500.0,-34.0,-0.17262362124769967,735.8277390384663,5.890786647796631,4.247777462005615,1.82,1.35,-0.169921875,1.82,1.35,-0.169921875
66,1644503942.695824,583.0,544.0,0.23582773903846635,500.0,-39.0,-0.19739555984988078,735.8277390384663,5.890786647796631,4.247777462005615,1.82,1.35,-0.169921875,1.82,1.35,-0.169921875
67,1644503942.7105508,583.0,544.0,0.23582773903846635,500.0,-39.0,-0.19739555984988078,735.8277390384663,6.011006832122803,4.367998123168945,1.82,1.35,-0.169921875,1.82,1.35,-0.169921875
68,1644503942.7295136,583.0,544.0,0.23582773903846635,500.0,-39.0,-0.19739555984988078,735.8277390384663,6.25144624710083,4.488218307495117,1.82,1.35,-0.169921875,1.82,1.35,-0.169921875
69,1644503942.7439396,583.0,544.0,0.23735175618705545,500.0,-39.0,-0.19739555984988078,737.3517561870555,6.371666431427002,4.608438014984131,1.82,1.35,-0.169921875,1.82,1.35,-0.169921875
70,1644503942.7467554,583.0,544.0,0.23735175618705545,500.0,-39.0,-0.19739555984988078,737.3517561870555,6.371666431427002,4.608438014984131,1.82,1.35,-0.169921875,1.82,1.35,-0.169921875
71,1644503942.774914,584.0,547.0,0.23735175618705545,500.0,-37.0,-0.18751445852181417,737.3517561870555,6.451813220977783,4.608438014984131,1.82,1.35,-0.169921875,1.82,1.35,-0.169921875
72,1644503942.7783961,584.0,547.0,0.23735175618705545,500.0,-37.0,-0.18751445852181417,737.3517561870555,6.451813220977783,4.608438014984131,1.82,1.35,-0.169921875,1.82,1.35,-0.169921875
73,1644503942.7921886,584.0,547.0,0.23735175618705545,500.0,-37.0,-0.18751445852181417,737.3517561870555,6.451813220977783,4.608438014984131,1.82,1.35,-0.169921875,1.82,1.35,-0.169921875
74,1644503942.8123388,584.0,547.0,0.24373046663853268,500.0,-37.0,-0.18751445852181417,743.7304666385327,6.612106800079346,4.768731594085693,1.82,1.35,-0.169921875,1.82,1.35,-0.169921875
75,1644503942.8164954,584.0,547.0,0.24373046663853268,500.0,-37.0,-0.18751445852181417,743.7304666385327,6.612106800079346,4.768731594085693,1.82,1.35,-0.169921875,1.82,1.35,-0.169921875
76,1644503942.8190022,590.0,555.0,0.24373046663853268,500.0,-35.0,-0.1775961672834879,743.7304666385327,6.612106800079346,4.768731594085693,1.82,1.35,-0.169921875,1.82,1.35,-0.169921875
77,1644503942.8324735,590.0,555.0,0.24373046663853268,500.0,-35.0,-0.1775961672834879,743.7304666385327,6.612106800079346,4.808804988861084,1.82,1.35,-0.169921875,1.82,1.35,-0.169921875
78,1644503942.8513687,590.0,555.0,0.24373046663853268,500.0,-35.0,-0.1775961672834879,743.7304666385327,6.692253589630127,4.848878383636475,1.82,1.35,-0.169921875,1.82,1.35,-0.169921875
79,1644503942.8596306,590.0,555.0,0.24373046663853268,500.0,-35.0,-0.1775961672834879,743.7304666385327,6.692253589630127,4.848878383636475,1.82,1.35,-0.169921875,1.82,1.35,-0.169921875
80,1644503942.8636253,590.0,555.0,0.24373046663853268,500.0,-35.0,-0.1775961672834879,743.7304666385327,6.692253589630127,4.848878383636475,1.82,1.35,-0.169921875,1.82,1.35,-0.169921875
81,1644503942.8774889,590.0,555.0,0.24373046663853268,500.0,-35.0,-0.1775961672834879,743.7304666385327,6.692253589630127,4.848878383636475,1.82,1.35,-0.169921875,1.82,1.35,-0.169921875
82,1644503942.8857543,590.0,555.0,0.24432134563223348,500.0,-35.0,-0.1775961672834879,744.3213456322335,6.692253589630127,4.848878383636475,1.82,1.35,-0.169921875,1.82,1.35,-0.169921875
83,1644503942.8945448,590.0,555.0,0.24432134563223348,500.0,-35.0,-0.1775961672834879,744.3213456322335,6.692253589630127,4.848878383636475,1.82,1.35,-0.169921875,1.82,1.35,-0.169921875
84,1644503942.902562,590.0,558.0,0.24432134563223348,500.0,-32.0,-0.16265284233076271,744.3213456322335,6.692253589630127,4.848878383636475,1.82,1.35,-0.169921875,1.82,1.35,-0.169921875
85,1644503942.9165854,590.0,558.0,0.24432134563223348,500.0,-32.0,-0.16265284233076271,744.3213456322335,6.692253589630127,4.848878383636475,1.82,1.35,-0.169921875,1.82,1.35,-0.169921875
86,1644503942.9249678,590.0,558.0,0.24432134563223348,500.0,-32.0,-0.16265284233076271,744.3213456322335,6.692253589630127,4.848878383636475,1.82,1.35,-0.169921875,1.82,1.35,-0.169921875
87,1644503942.9275448,590.0,558.0,0.24432134563223348,500.0,-32.0,-0.16265284233076271,744.3213456322335,6.692253589630127,4.848878383636475,1.82,1.35,-0.169921875,1.82,1.35,-0.169921875
88,1644503942.9297254,590.0,558.0,0.24432134563223348,500.0,-32.0,-0.16265284233076271,744.3213456322335,6.692253589630127,4.848878383636475,1.82,1.35,-0.169921875,1.82,1.35,-0.169921875
89,1644503942.9377685,590.0,558.0,0.24432134563223348,500.0,-32.0,-0.16265284233076271,744.3213456322335,6.692253589630127,4.848878383636475,1.82,1.35,-0.169921875,1.82,1.35,-0.169921875
90,1644503942.9412816,590.0,558.0,0.24432134563223348,500.0,-32.0,-0.16265284233076271,744.3213456322335,6.692253589630127,4.848878383636475,1.82,1.35,-0.169921875,1.82,1.35,-0.169921875
91,1644503942.9493573,590.0,558.0,0.24505572735825626,500.0,-32.0,-0.16265284233076271,745.0557273582563,6.692253589630127,4.848878383636475,1.82,1.35,-0.169921875,1.82,1.35,-0.169921875
92,1644503942.9629943,590.0,558.0,0.24692031722799607,500.0,-32.0,-0.16265284233076271,746.9203172279961,6.692253589630127,4.848878383636475,1.82,1.35,-0.169921875,1.82,1.35,-0.169921875
93,1644503942.965664,590.0,565.0,0.24692031722799607,500.0,-25.0,-0.12750955821523827,746.9203172279961,6.692253589630127,4.848878383636475,1.82,1.35,-0.169921875,1.82,1.35,-0.169921875
94,1644503942.9798548,592.0,565.0,0.24692031722799607,500.0,-27.0,-0.13758673647034986,746.9203172279961,6.692253589630127,4.848878383636475,1.82,1.35,-0.169921875,1.82,1.35,-0.169921875
95,1644503942.9936376,592.0,565.0,0.24692031722799607,500.0,-27.0,-0.13758673647034986,746.9203172279961,6.692253589630127,4.848878383636475,1.82,1.35,-0.169921875,1.82,1.35,-0.169921875
96,1644503943.003969,592.0,565.0,0.25418935727172426,500.0,-27.0,-0.13758673647034986,754.1893572717242,6.692253589630127,4.848878383636475,1.82,1.35,-0.169921875,1.82,1.35,-0.169921875
97,1644503943.02314,592.0,565.0,0.25418935727172426,500.0,-27.0,-0.13758673647034986,754.1893572717242,6.692253589630127,4.848878383636475,1.82,1.35,-0.169921875,1.82,1.35,-0.169921875
98,1644503943.0269165,600.0,568.0,0.25418935727172426,500.0,-32.0,-0.16265284233076271,754.1893572717242,6.692253589630127,4.848878383636475,1.82,1.35,-0.169921875,1.82,1.35,-0.169921875
99,1644503943.0458405,600.0,568.0,0.25418935727172426,500.0,-32.0,-0.16265284233076271,754.1893572717242,6.692253589630127,4.848878383636475,1.82,1.35,-0.169921875,1.82,1.35,-0.169921875
100,1644503943.0547695,600.0,568.0,0.25418935727172426,500.0,-32.0,-0.16265284233076271,754.1893572717242,6.692253589630127,4.848878383636475,1.82,1.35,-0.169921875,1.82,1.35,-0.169921875
101,1644503943.063693,600.0,568.0,0.2579864769889246,500.0,-32.0,-0.16265284233076271,757.9864769889246,6.692253589630127,4.848878383636475,1.82,1.35,-0.169921875,1.82,1.35,-0.169921875
102,1644503943.078911,600.0,568.0,0.2579864769889246,500.0,-32.0,-0.16265284233076271,757.9864769889246,6.692253589630127,4.848878383636475,1.82,1.35,-0.169921875,1.82,1.35,-0.169921875
103,1644503943.098123,603.0,582.0,0.2579864769889246,500.0,-21.0,-0.10727885564840274,757.9864769889246,7.293354034423828,5.129391670227051,1.82,1.35,-0.169921875,1.82,1.35,-0.169921875
104,1644503943.1011527,603.0,582.0,0.2579864769889246,500.0,-21.0,-0.10727885564840274,757.9864769889246,7.333427429199219,5.169465065002441,1.82,1.35,-0.169921875,1.82,1.35,-0.169921875
105,1644503943.1151922,603.0,582.0,0.2579864769889246,500.0,-21.0,-0.10727885564840274,757.9864769889246,7.133060455322266,5.049245357513428,1.82,1.35,-0.169921875,1.82,1.35,-0.169921875
106,1644503943.1238093,603.0,582.0,0.2579864769889246,500.0,-21.0,-0.10727885564840274,757.9864769889246,7.133060455322266,5.049245357513428,1.82,1.35,-0.169921875,1.82,1.35,-0.169921875
