Full Time,16.84796667098999
Full Distance,2450
Base Speed,2.5
int,error[mm],angle[rad],distance[mm],rw_speed[rad/s],lw_speeed[rad/s],pozyx_x_1,pozyx_y_1,pozyx_rot_y_1,pozyx_x_2,pozyx_y_2,pozyx_rot_2
0,1644503671.941351,615.0,669.0,0.21443543372041837,500.0,54.0,0.270153199711405,714.4354337204184,0.0,0.0,1.791,1.355,-0.169921875,1.791,1.355,-0.169921875
1,1644503671.9549737,615.0,669.0,0.21443543372041837,500.0,54.0,0.270153199711405,714.4354337204184,0.0,0.0,1.791,1.355,-0.169921875,1.791,1.355,-0.169921875
2,1644503671.9678068,614.0,667.0,0.21443543372041837,500.0,53.0,0.2653839938134022,714.4354337204184,0.0,0.0,1.791,1.355,-0.169921875,1.791,1.355,-0.169921875
3,1644503671.997295,614.0,667.0,0.21443543372041837,500.0,53.0,0.2653839938134022,714.4354337204184,0.0,0.0,1.791,1.355,-0.169921875,1.791,1.355,-0.169921875
4,1644503672.0053117,614.0,667.0,0.20934427486535037,500.0,53.0,0.2653839938134022,709.3442748653504,0.0,0.0,1.791,1.355,-0.169921875,1.791,1.355,-0.169921875
5,1644503672.0244017,614.0,667.0,0.20934427486535037,500.0,53.0,0.2653839938134022,709.3442748653504,0.0,0.0,1.791,1.355,-0.169921875,1.791,1.355,-0.169921875
6,1644503672.0322802,613.0,669.0,0.20934427486535037,500.0,56.0,0.2796537543183254,709.3442748653504,0.0,0.0,1.791,1.355,-0.169921875,1.791,1.355,-0.169921875
7,1644503672.035309,613.0,669.0,0.20934427486535037,500.0,56.0,0.2796537543183254,709.3442748653504,0.0,0.0,1.791,1.355,-0.169921875,1.791,1.355,-0.169921875
8,1644503672.0434716,613.0,669.0,0.20934427486535037,500.0,56.0,0.2796537543183254,709.3442748653504,0.0,0.0,1.791,1.355,-0.169921875,1.791,1.355,-0.169921875
9,1644503672.052443,613.0,669.0,0.2163654174368046,500.0,56.0,0.2796537543183254,716.3654174368046,0.0,0.0,1.791,1.355,-0.169921875,1.791,1.355,-0.169921875
10,1644503672.0614457,613.0,669.0,0.22038786591644816,500.0,56.0,0.2796537543183254,720.3878659164482,0.0,0.0,1.791,1.355,-0.169921875,1.791,1.355,-0.169921875
11,1644503672.0700994,616.0,669.0,0.22038786591644816,500.0,53.0,0.2653839938134022,720.3878659164482,0.0,0.0,1.791,1.355,-0.169921875,1.791,1.355,-0.169921875
12,1644503672.078592,616.0,666.0,0.22038786591644816,500.0,50.0,0.25100268664303466,720.3878659164482,0.0,0.0,1.791,1.355,-0.169921875,1.791,1.355,-0.169921875
13,1644503672.0873501,616.0,666.0,0.22038786591644816,500.0,50.0,0.25100268664303466,720.3878659164482,0.0,0.0,1.791,1.355,-0.169921875,1.791,1.355,-0.169921875
14,1644503672.0956721,616.0,666.0,0.22038786591644816,500.0,50.0,0.25100268664303466,720.3878659164482,0.0,0.0,1.791,1.355,-0.169921875,1.791,1.355,-0.169921875
15,1644503672.104519,616.0,666.0,0.21578684325660333,500.0,50.0,0.25100268664303466,715.7868432566033,0.0,0.0,1.791,1.355,-0.169921875,1.791,1.355,-0.169921875
16,1644503672.1194506,616.0,666.0,0.21578684325660333,500.0,50.0,0.25100268664303466,715.7868432566033,0.0,0.0,1.791,1.355,-0.169921875,1.791,1.355,-0.169921875
17,1644503672.132546,614.0,666.0,0.21578684325660333,500.0,52.0,0.26060239174734096,715.7868432566033,0.0,0.0,1.791,1.355,-0.169921875,1.791,1.355,-0.169921875
18,1644503672.1415157,614.0,666.0,0.21578684325660333,500.0,52.0,0.26060239174734096,715.7868432566033,0.0,0.0,1.791,1.355,-0.169921875,1.791,1.355,-0.169921875
19,1644503672.150191,614.0,666.0,0.21578684325660333,500.0,52.0,0.26060239174734096,715.7868432566033,0.0,0.0,1.791,1.355,-0.169921875,1.791,1.355,-0.169921875
20,1644503672.1586497,614.0,666.0,0.21578684325660333,500.0,52.0,0.26060239174734096,715.7868432566033,0.0,0.0,1.791,1.355,-0.169921875,1.791,1.355,-0.169921875
21,1644503672.1680202,614.0,666.0,0.20890418820832962,500.0,52.0,0.26060239174734096,708.9041882083296,0.0,0.0,1.791,1.355,-0.169921875,1.791,1.355,-0.169921875
22,1644503672.1714807,614.0,666.0,0.20890418820832962,500.0,52.0,0.26060239174734096,708.9041882083296,0.0,0.0,1.791,1.355,-0.169921875,1.791,1.355,-0.169921875
23,1644503672.1910212,614.0,671.0,0.20890418820832962,500.0,57.0,0.28438477659385886,708.9041882083296,0.08014675229787827,0.08014675229787827,1.791,1.355,-0.169921875,1.791,1.355,-0.169921875
24,1644503672.198613,614.0,671.0,0.20890418820832962,500.0,57.0,0.28438477659385886,708.9041882083296,0.08014675229787827,0.08014675229787827,1.791,1.355,-0.169921875,1.791,1.355,-0.169921875
25,1644503672.2066145,614.0,671.0,0.20890418820832962,500.0,57.0,0.28438477659385886,708.9041882083296,0.08014675229787827,0.08014675229787827,1.791,1.355,-0.169921875,1.791,1.355,-0.169921875
26,1644503672.2371416,614.0,671.0,0.22002765663418894,500.0,57.0,0.28438477659385886,720.0276566341889,1.6430083513259888,2.003668785095215,1.791,1.355,-0.169921875,1.791,1.355,-0.169921875
27,1644503672.2453363,614.0,671.0,0.22002765663418894,500.0,57.0,0.28438477659385886,720.0276566341889,1.6430083513259888,2.003668785095215,1.791,1.355,-0.169921875,1.791,1.355,-0.169921875
28,1644503672.2540781,617.0,668.0,0.22002765663418894,500.0,51.0,0.25580856461537194,720.0276566341889,1.6430083513259888,2.003668785095215,1.791,1.355,-0.169921875,1.791,1.355,-0.169921875
29,1644503672.267533,617.0,668.0,0.22002765663418894,500.0,51.0,0.25580856461537194,720.0276566341889,1.6430083513259888,2.003668785095215,1.791,1.355,-0.169921875,1.791,1.355,-0.169921875
30,1644503672.2867165,617.0,668.0,0.2159624465602858,500.0,51.0,0.25580856461537194,715.9624465602858,1.7231550216674805,2.3242557048797607,1.791,1.355,-0.169921875,1.791,1.355,-0.169921875
31,1644503672.3057156,617.0,668.0,0.2159624465602858,500.0,51.0,0.25580856461537194,715.9624465602858,1.883448600769043,2.92535662651062,1.791,1.355,-0.169921875,1.791,1.355,-0.169921875
32,1644503672.3137023,617.0,671.0,0.2159624465602858,500.0,54.0,0.270153199711405,715.9624465602858,1.883448600769043,2.92535662651062,1.791,1.355,-0.169921875,1.791,1.355,-0.169921875
33,1644503672.3385797,617.0,671.0,0.2159624465602858,500.0,54.0,0.270153199711405,715.9624465602858,2.1238889694213867,3.44631028175354,1.791,1.355,-0.169921875,1.791,1.355,-0.169921875
34,1644503672.3640049,617.0,671.0,0.21733040929499772,500.0,54.0,0.270153199711405,717.3304092949977,2.28418231010437,3.6867504119873047,1.791,1.355,-0.169921875,1.791,1.355,-0.169921875
35,1644503672.376715,617.0,671.0,0.21733040929499772,500.0,54.0,0.270153199711405,717.3304092949977,2.28418231010437,3.6867504119873047,1.791,1.355,-0.169921875,1.791,1.355,-0.169921875
36,1644503672.39086,617.0,670.0,0.21733040929499772,500.0,53.0,0.2653839938134022,717.3304092949977,2.3242557048797607,3.9271907806396484,1.791,1.355,-0.169921875,1.791,1.355,-0.169921875
37,1644503672.399266,617.0,670.0,0.21733040929499772,500.0,53.0,0.2653839938134022,717.3304092949977,2.4444758892059326,4.127557754516602,1.791,1.355,-0.169921875,1.791,1.355,-0.169921875
38,1644503672.4127905,617.0,670.0,0.22655136042476806,500.0,53.0,0.2653839938134022,726.5513604247681,2.4444758892059326,4.127557754516602,1.791,1.355,-0.169921875,1.791,1.355,-0.169921875
39,1644503672.4321053,617.0,670.0,0.22119037672777017,500.0,53.0,0.2653839938134022,721.1903767277702,2.604769229888916,4.3279242515563965,1.791,1.355,-0.169921875,1.791,1.355,-0.169921875
40,1644503672.4508936,621.0,670.0,0.22119037672777017,500.0,49.0,0.24618493515939638,721.1903767277702,2.724989652633667,4.568365097045898,1.791,1.355,-0.169921875,1.791,1.355,-0.169921875
41,1644503672.4854133,621.0,674.0,0.22119037672777017,500.0,53.0,0.2653839938134022,721.1903767277702,2.724989652633667,4.768731594085693,1.791,1.355,-0.169921875,1.791,1.355,-0.169921875
42,1644503672.499433,621.0,674.0,0.20654125183214933,500.0,53.0,0.2653839938134022,706.5412518321493,2.6849162578582764,4.367997646331787,1.791,1.355,-0.169921875,1.791,1.355,-0.169921875
43,1644503672.5134926,621.0,674.0,0.20654125183214933,500.0,53.0,0.2653839938134022,706.5412518321493,2.6849162578582764,4.367997646331787,1.791,1.355,-0.169921875,1.791,1.355,-0.169921875
44,1644503672.5218878,616.0,676.0,0.20654125183214933,500.0,60.0,0.2984989315861793,706.5412518321493,2.6849162578582764,4.367997646331787,1.791,1.355,-0.169921875,1.791,1.355,-0.169921875
45,1644503672.524673,616.0,676.0,0.20654125183214933,500.0,60.0,0.2984989315861793,706.5412518321493,2.6849162578582764,4.367997646331787,1.791,1.355,-0.169921875,1.791,1.355,-0.169921875
46,1644503672.54311,616.0,676.0,0.20654125183214933,500.0,60.0,0.2984989315861793,706.5412518321493,2.6849162578582764,4.367997646331787,1.791,1.355,-0.169921875,1.791,1.355,-0.169921875
47,1644503672.5765057,616.0,676.0,0.20654125183214933,500.0,60.0,0.2984989315861793,706.5412518321493,2.6849162578582764,4.367997646331787,1.791,1.355,-0.169921875,1.791,1.355,-0.169921875
48,1644503672.5841522,616.0,676.0,0.20654125183214933,500.0,60.0,0.2984989315861793,706.5412518321493,2.6849162578582764,4.367997646331787,1.791,1.355,-0.169921875,1.791,1.355,-0.169921875
49,1644503672.5915763,616.0,676.0,0.20654125183214933,500.0,60.0,0.2984989315861793,706.5412518321493,2.6849162578582764,4.367997646331787,1.791,1.355,-0.169921875,1.791,1.355,-0.169921875
50,1644503672.5990975,616.0,676.0,0.20654125183214933,500.0,60.0,0.2984989315861793,706.5412518321493,2.6849162578582764,4.367997646331787,1.791,1.355,-0.169921875,1.791,1.355,-0.169921875
51,1644503672.606876,616.0,676.0,0.20654125183214933,500.0,60.0,0.2984989315861793,706.5412518321493,2.6849162578582764,4.367997646331787,1.791,1.355,-0.169921875,1.791,1.355,-0.169921875
52,1644503672.609646,616.0,676.0,0.20654125183214933,500.0,60.0,0.2984989315861793,706.5412518321493,2.6849162578582764,4.367997646331787,1.791,1.355,-0.169921875,1.791,1.355,-0.169921875
53,1644503672.6239486,616.0,676.0,0.2122835141383497,500.0,60.0,0.2984989315861793,712.2835141383497,2.8051364421844482,3.887117385864258,1.791,1.355,-0.169921875,1.791,1.355,-0.169921875
54,1644503672.63956,616.0,676.0,0.20267613794019132,500.0,60.0,0.2984989315861793,702.6761379401913,3.887117385864258,3.967264175415039,1.791,1.355,-0.169921875,1.791,1.355,-0.169921875
55,1644503672.6473165,616.0,677.0,0.20267613794019132,500.0,61.0,0.30317683916959465,702.6761379401913,3.887117385864258,4.04741096496582,1.791,1.355,-0.169921875,1.791,1.355,-0.169921875
56,1644503672.6553228,615.0,677.0,0.20267613794019132,500.0,62.0,0.3078410960142372,702.6761379401913,3.887117385864258,4.04741096496582,1.791,1.355,-0.169921875,1.791,1.355,-0.169921875
57,1644503672.6636312,615.0,677.0,0.1806120993777197,500.0,62.0,0.3078410960142372,680.6120993777197,3.8069705963134766,4.087484359741211,1.791,1.355,-0.169921875,1.791,1.355,-0.169921875
58,1644503672.6662116,615.0,677.0,0.1806120993777197,500.0,62.0,0.3078410960142372,680.6120993777197,3.8069705963134766,4.087484359741211,1.791,1.355,-0.169921875,1.791,1.355,-0.169921875
59,1644503672.7067456,606.0,677.0,0.19264087838673266,500.0,71.0,0.34918269561499105,692.6408783867327,3.887117385864258,4.087484359741211,1.791,1.355,-0.169921875,1.791,1.355,-0.169921875
60,1644503672.7316163,606.0,677.0,0.1896927576827236,500.0,71.0,0.34918269561499105,689.6927576827236,4.247777462005615,4.528291702270508,1.791,1.355,-0.169921875,1.791,1.355,-0.169921875
61,1644503672.7337494,606.0,671.0,0.1896927576827236,500.0,65.0,0.3217505543966422,689.6927576827236,4.247777462005615,4.528291702270508,1.791,1.355,-0.169921875,1.791,1.355,-0.169921875
62,1644503672.7537022,606.0,671.0,0.1896927576827236,500.0,65.0,0.3217505543966422,689.6927576827236,4.247777462005615,4.568365097045898,1.791,1.355,-0.169921875,1.791,1.355,-0.169921875
63,1644503672.756554,606.0,671.0,0.1896927576827236,500.0,65.0,0.3217505543966422,689.6927576827236,4.247777462005615,4.568365097045898,1.791,1.355,-0.169921875,1.791,1.355,-0.169921875
64,1644503672.7696161,606.0,671.0,0.1896927576827236,500.0,65.0,0.3217505543966422,689.6927576827236,4.3279242515563965,4.608438014984131,1.791,1.355,-0.169921875,1.791,1.355,-0.169921875
65,1644503672.7834232,606.0,671.0,0.1896927576827236,500.0,65.0,0.3217505543966422,689.6927576827236,4.3279242515563965,4.608438014984131,1.791,1.355,-0.169921875,1.791,1.355,-0.169921875
66,1644503672.7920399,606.0,671.0,0.18481267242692548,500.0,65.0,0.3217505543966422,684.8126724269255,4.3279242515563965,4.608438014984131,1.791,1.355,-0.169921875,1.791,1.355,-0.169921875
67,1644503672.800299,606.0,671.0,0.18481267242692548,500.0,65.0,0.3217505543966422,684.8126724269255,4.3279242515563965,4.608438014984131,1.791,1.355,-0.169921875,1.791,1.355,-0.169921875
68,1644503672.8087716,604.0,671.0,0.20343395627588484,500.0,67.0,0.3309527486271431,703.4339562758848,4.3279242515563965,4.608438014984131,1.791,1.355,-0.169921875,1.791,1.355,-0.169921875
69,1644503672.8120935,604.0,671.0,0.20343395627588484,500.0,67.0,0.3309527486271431,703.4339562758848,4.3279242515563965,4.608438014984131,1.791,1.355,-0.169921875,1.791,1.355,-0.169921875
70,1644503672.825761,604.0,658.0,0.20343395627588484,500.0,54.0,0.270153199711405,703.4339562758848,4.367998123168945,4.6485114097595215,1.791,1.355,-0.169921875,1.791,1.355,-0.169921875
71,1644503672.8401146,604.0,658.0,0.20343395627588484,500.0,54.0,0.270153199711405,703.4339562758848,4.367997646331787,4.768731594085693,1.791,1.355,-0.169921875,1.791,1.355,-0.169921875
72,1644503672.8711357,604.0,658.0,0.19781046205354802,500.0,54.0,0.270153199711405,697.810462053548,4.56836462020874,5.009171962738037,1.791,1.355,-0.169921875,1.791,1.355,-0.169921875
73,1644503672.879288,604.0,658.0,0.19781046205354802,500.0,54.0,0.270153199711405,697.810462053548,4.56836462020874,5.009171962738037,1.791,1.355,-0.169921875,1.791,1.355,-0.169921875
74,1644503672.8825152,601.0,657.0,0.19781046205354802,500.0,56.0,0.2796537543183254,697.810462053548,4.56836462020874,5.009171962738037,1.791,1.355,-0.169921875,1.791,1.355,-0.169921875
75,1644503672.8908434,601.0,657.0,0.19781046205354802,500.0,56.0,0.2796537543183254,697.810462053548,4.56836462020874,5.049245357513428,1.791,1.355,-0.169921875,1.791,1.355,-0.169921875
76,1644503672.8986883,601.0,657.0,0.19781046205354802,500.0,56.0,0.2796537543183254,697.810462053548,4.56836462020874,5.049245357513428,1.791,1.355,-0.169921875,1.791,1.355,-0.169921875
77,1644503672.9076393,601.0,657.0,0.18838145066643233,500.0,56.0,0.2796537543183254,688.3814506664323,4.608438014984131,5.049245357513428,1.791,1.355,-0.169921875,1.791,1.355,-0.169921875
78,1644503672.9111,601.0,657.0,0.18838145066643233,500.0,56.0,0.2796537543183254,688.3814506664323,4.608438014984131,5.049245357513428,1.791,1.355,-0.169921875,1.791,1.355,-0.169921875
79,1644503672.945478,597.0,657.0,0.1953328736049464,500.0,60.0,0.2984989315861793,695.3328736049464,4.808804988861084,5.169465065002441,1.791,1.355,-0.169921875,1.791,1.355,-0.169921875
80,1644503672.9535182,597.0,657.0,0.1953328736049464,500.0,60.0,0.2984989315861793,695.3328736049464,4.808804988861084,5.169465065002441,1.791,1.355,-0.169921875,1.791,1.355,-0.169921875
81,1644503672.9612997,597.0,652.0,0.1953328736049464,500.0,55.0,0.27490984148067255,695.3328736049464,4.808804988861084,5.169465065002441,1.791,1.355,-0.169921875,1.791,1.355,-0.169921875
82,1644503672.9759436,597.0,652.0,0.1836025556228225,500.0,55.0,0.27490984148067255,683.6025556228225,4.728658199310303,5.169465065002441,1.791,1.355,-0.169921875,1.791,1.355,-0.169921875
83,1644503672.983915,597.0,652.0,0.1877878304034697,500.0,55.0,0.27490984148067255,687.7878304034697,4.728658199310303,5.169465065002441,1.791,1.355,-0.169921875,1.791,1.355,-0.169921875
84,1644503673.0248032,592.0,652.0,0.1877878304034697,500.0,60.0,0.2984989315861793,687.7878304034697,4.929025173187256,5.289685249328613,1.791,1.355,-0.169921875,1.791,1.355,-0.169921875
85,1644503673.028371,592.0,649.0,0.1877878304034697,500.0,57.0,0.28438477659385886,687.7878304034697,4.929025173187256,5.289685249328613,1.791,1.355,-0.169921875,1.791,1.355,-0.169921875
86,1644503673.0539393,592.0,649.0,0.18339319603879495,500.0,57.0,0.28438477659385886,683.3931960387949,4.929025173187256,5.369832515716553,1.791,1.355,-0.169921875,1.791,1.355,-0.169921875
87,1644503673.0627959,592.0,649.0,0.18339319603879495,500.0,57.0,0.28438477659385886,683.3931960387949,4.929025173187256,5.369832515716553,1.791,1.355,-0.169921875,1.791,1.355,-0.169921875
88,1644503673.0866144,586.0,642.0,0.18339319603879495,500.0,56.0,0.2796537543183254,683.3931960387949,4.929025173187256,5.289685249328613,1.791,1.355,-0.169921875,1.791,1.355,-0.169921875
89,1644503673.1320431,586.0,642.0,0.18415935583834472,500.0,56.0,0.2796537543183254,684.1593558383447,5.049245357513428,5.449979305267334,1.791,1.355,-0.169921875,1.791,1.355,-0.169921875
90,1644503673.1561651,586.0,642.0,0.18415935583834472,500.0,56.0,0.2796537543183254,684.1593558383447,5.009171962738037,5.409905910491943,1.791,1.355,-0.169921875,1.791,1.355,-0.169921875
91,1644503673.1703615,584.0,638.0,0.19066693889805914,500.0,54.0,0.270153199711405,690.6669388980591,5.049245357513428,5.369832515716553,1.791,1.355,-0.169921875,1.791,1.355,-0.169921875
92,1644503673.178221,584.0,638.0,0.18162571054185242,500.0,54.0,0.270153199711405,681.6257105418524,5.049245357513428,5.369832515716553,1.791,1.355,-0.169921875,1.791,1.355,-0.169921875
93,1644503673.20821,584.0,633.0,0.18162571054185242,500.0,49.0,0.24618493515939638,681.6257105418524,5.049245357513428,5.369832515716553,1.791,1.355,-0.169921875,1.791,1.355,-0.169921875
94,1644503673.2162237,580.0,633.0,0.18162571054185242,500.0,53.0,0.2653839938134022,681.6257105418524,5.049245357513428,5.369832515716553,1.791,1.355,-0.169921875,1.791,1.355,-0.169921875
95,1644503673.225431,580.0,633.0,0.1905240220490382,500.0,53.0,0.2653839938134022,690.5240220490382,5.049245357513428,5.369832515716553,1.791,1.355,-0.169921875,1.791,1.355,-0.169921875
96,1644503673.2346632,580.0,633.0,0.18610417476486044,500.0,53.0,0.2653839938134022,686.1041747648604,5.049245357513428,5.490052700042725,1.791,1.355,-0.169921875,1.791,1.355,-0.169921875
97,1644503673.2375495,580.0,626.0,0.18610417476486044,500.0,46.0,0.23166225901704268,686.1041747648604,5.049245357513428,5.490052700042725,1.791,1.355,-0.169921875,1.791,1.355,-0.169921875
98,1644503673.2562444,578.0,626.0,0.18610417476486044,500.0,48.0,0.2413554905754038,686.1041747648604,5.009171962738037,5.490052700042725,1.791,1.355,-0.169921875,1.791,1.355,-0.169921875
99,1644503673.2862494,578.0,626.0,0.16801477895639175,500.0,48.0,0.2413554905754038,668.0147789563918,5.089318752288818,5.6102728843688965,1.791,1.355,-0.169921875,1.791,1.355,-0.169921875
100,1644503673.3306162,578.0,626.0,0.16531701117723663,500.0,48.0,0.2413554905754038,665.3170111772366,5.129391670227051,5.570199489593506,1.791,1.355,-0.169921875,1.791,1.355,-0.169921875
101,1644503673.33883,570.0,626.0,0.16531701117723663,500.0,56.0,0.2796537543183254,665.3170111772366,5.129392147064209,5.490052700042725,1.791,1.355,-0.169921875,1.791,1.355,-0.169921875
102,1644503673.347028,570.0,628.0,0.13697159333550007,500.0,58.0,0.28910274986199147,636.9715933355001,5.129392147064209,5.490052700042725,1.791,1.355,-0.169921875,1.791,1.355,-0.169921875
103,1644503673.3502786,570.0,628.0,0.14273703929183854,500.0,58.0,0.28910274986199147,642.7370392918385,5.129391670227051,5.490052700042725,1.791,1.355,-0.169921875,1.791,1.355,-0.169921875
104,1644503673.3536859,558.0,628.0,0.14273703929183854,500.0,70.0,0.3446473156180262,642.7370392918385,5.129391670227051,5.490052700042725,1.791,1.355,-0.169921875,1.791,1.355,-0.169921875
105,1644503673.3724084,558.0,624.0,0.14273703929183854,500.0,66.0,0.3263588167067627,642.7370392918385,5.129391670227051,5.490052700042725,1.791,1.355,-0.169921875,1.791,1.355,-0.169921875
106,1644503673.391035,558.0,624.0,0.14273703929183854,500.0,66.0,0.3263588167067627,642.7370392918385,5.209538459777832,5.570199489593506,1.791,1.355,-0.169921875,1.791,1.355,-0.169921875
107,1644503673.3992171,558.0,624.0,0.14273703929183854,500.0,66.0,0.3263588167067627,642.7370392918385,5.249611854553223,5.530126094818115,1.791,1.355,-0.169921875,1.791,1.355,-0.169921875
