,time[s],front[mm],rear[mm],PID Align setpoint,PID Distance setpoint,error[mm],angle[rad],distance[mm],rw_speed[rad/s],lw_speeed[rad/s],pozyx_x_1,pozyx_y_1,pozyx_rot_y_1,pozyx_x_2,pozyx_y_2,pozyx_rot_2
0,1661454739.2026472,938.0,861.5,-0.3,500.0,76.5,0.20938539295349548,1056.044749422192,0.0,-0.0,1.376,0.988,0.0272216796875,2.479,1.1,0.1697998046875
1,1661454739.2165737,938.0,861.5,-0.3,500.0,76.5,0.20938539295349548,1056.044749422192,0.0,-0.0,1.376,0.988,0.0272216796875,2.479,1.1,0.1697998046875
2,1661454739.2310038,938.0,861.5,-0.3,500.0,76.5,0.20938539295349548,1056.044749422192,0.0,-0.0,1.376,0.988,0.0272216796875,2.479,1.1,0.1697998046875
3,1661454739.2404022,938.0,861.5,-0.3,500.0,76.5,0.20938539295349548,1056.044749422192,0.0,-0.0,1.376,0.988,0.0272216796875,2.479,1.1,0.1697998046875
4,1661454739.2542543,936.0,859.0,-0.3,500.0,77.0,0.21071389859857287,1053.6405259811352,0.0,-0.0,1.376,0.988,0.0272216796875,2.479,1.1,0.1697998046875
5,1661454739.2684197,934.0,858.5,-0.3,500.0,75.5,0.20672613417634575,1053.021994827418,0.0,-0.0,1.376,0.988,0.0272216796875,2.479,1.1,0.1697998046875
6,1661454739.2818284,934.0,858.5,-0.3,500.0,75.5,0.20672613417634575,1053.021994827418,0.0,-0.0,1.376,0.988,0.0272216796875,2.479,1.1,0.1697998046875
7,1661454739.2974799,934.0,858.5,-0.3,500.0,75.5,0.20672613417634575,1053.021994827418,0.0,-0.0,1.376,0.988,0.0272216796875,2.479,1.1,0.1697998046875
8,1661454739.32336,934.0,858.5,-0.3,500.0,75.5,0.20672613417634575,1053.021994827418,0.0,-0.0,1.376,0.988,0.0272216796875,2.479,1.1,0.1697998046875
9,1661454739.353729,936.5,859.5,-0.3,500.0,77.0,0.21071389859857287,1054.1294669042748,0.0,-0.0,1.376,0.988,0.0272216796875,2.479,1.1,0.1697998046875
10,1661454739.3888447,936.5,859.5,-0.3,500.0,77.0,0.21071389859857287,1054.1294669042748,0.0,-0.0,1.376,0.988,0.0272216796875,2.479,1.1,0.1697998046875
11,1661454739.407303,934.0,857.5,-0.3,500.0,76.5,0.20938539295349548,1052.1321140185205,0.1153528168797493,-0.0,1.376,0.988,0.0272216796875,2.479,1.1,0.1697998046875
12,1661454739.4165623,934.0,857.5,-0.3,500.0,76.5,0.20938539295349548,1052.1321140185205,0.1153528168797493,-0.0,1.376,0.988,0.0272216796875,2.479,1.1,0.1697998046875
13,1661454739.4358075,934.0,857.5,-0.3,500.0,76.5,0.20938539295349548,1052.1321140185205,0.1153528168797493,-0.0,1.376,0.988,0.0272216796875,2.479,1.1,0.1697998046875
14,1661454739.4612148,934.0,857.5,-0.3,500.0,76.5,0.20938539295349548,1052.1321140185205,0.2307056337594986,-0.0,1.376,0.988,0.0272216796875,2.479,1.1,0.1697998046875
15,1661454739.4970758,937.5,857.5,-0.3,500.0,80.0,0.21866894587394195,1052.3838834927558,0.2307056337594986,-0.0,1.376,0.988,0.0272216796875,2.479,1.1,0.1697998046875
16,1661454739.511132,937.5,858.0,-0.3,500.0,79.5,0.2173450278477986,1052.8417601055153,0.2307056337594986,-0.0,1.376,0.988,0.0272216796875,2.479,1.1,0.1697998046875
17,1661454739.5254736,937.5,858.0,-0.3,500.0,79.5,0.2173450278477986,1052.8417601055153,0.2307056337594986,-0.0,1.376,0.988,0.0272216796875,2.479,1.1,0.1697998046875
18,1661454739.566651,937.5,859.5,-0.3,500.0,78.0,0.213368642151808,1054.2058937089053,0.1922547072172165,-0.0,1.376,0.988,0.0272216796875,2.479,1.1,0.1697998046875
19,1661454739.5816612,937.5,859.5,-0.3,500.0,78.0,0.213368642151808,1054.2058937089053,0.1922547072172165,-0.0,1.376,0.988,0.0272216796875,2.479,1.1,0.1697998046875
20,1661454739.6065614,937.5,859.5,-0.3,500.0,78.0,0.213368642151808,1054.2058937089053,0.13457830250263214,-0.0,1.376,0.988,0.0272216796875,2.479,1.1,0.1697998046875
21,1661454739.6218576,933.5,861.0,-0.3,500.0,72.5,0.19873067254123541,1055.1625181699078,0.13457830250263214,-0.0,1.376,0.988,0.0272216796875,2.479,1.1,0.1697998046875
22,1661454739.6409209,933.5,861.0,-0.3,500.0,72.5,0.19873067254123541,1055.1625181699078,0.13457830250263214,-0.0,1.376,0.988,0.0272216796875,2.479,1.1,0.1697998046875
23,1661454739.6445355,933.5,861.0,-0.3,500.0,72.5,0.19873067254123541,1055.1625181699078,0.13457830250263214,-0.0,1.376,0.988,0.0272216796875,2.479,1.1,0.1697998046875
24,1661454739.6583667,933.5,861.0,-0.3,500.0,72.5,0.19873067254123541,1055.1625181699078,0.13457830250263214,-0.0,1.376,0.988,0.0272216796875,2.479,1.1,0.1697998046875
25,1661454739.6615095,933.5,861.0,-0.3,500.0,72.5,0.19873067254123541,1055.1625181699078,0.13457830250263214,-0.0,1.376,0.988,0.0272216796875,2.479,1.1,0.1697998046875
26,1661454739.686292,933.5,861.0,-0.3,500.0,72.5,0.19873067254123541,1055.1625181699078,0.1538037657737732,-0.0,1.376,0.988,0.0272216796875,2.479,1.1,0.1697998046875
27,1661454739.734644,936.0,861.5,-0.3,500.0,74.5,0.20406390592667634,1055.8639124664246,0.1538037657737732,-0.0,1.376,0.988,0.0272216796875,2.479,1.1,0.1697998046875
28,1661454739.7502885,938.5,860.5,-0.3,500.0,78.0,0.213368642151808,1055.183216848932,0.2307056337594986,-0.0,1.376,0.988,0.0272216796875,2.479,1.1,0.1697998046875
29,1661454739.7699966,938.0,859.0,-0.3,500.0,79.0,0.21602033523398456,1053.7864367115315,0.2307056337594986,-0.0,1.376,0.988,0.0272216796875,2.479,1.1,0.1697998046875
30,1661454739.783821,938.0,859.0,-0.3,500.0,79.0,0.21602033523398456,1053.7864367115315,0.2307056337594986,-0.0,1.376,0.988,0.0272216796875,2.479,1.1,0.1697998046875
31,1661454739.79723,938.0,859.0,-0.3,500.0,79.0,0.21602033523398456,1053.7864367115315,0.2307056337594986,-0.0,1.376,0.988,0.0272216796875,2.479,1.1,0.1697998046875
32,1661454739.8009446,938.0,859.0,-0.3,500.0,79.0,0.21602033523398456,1053.7864367115315,0.2307056337594986,-0.0,1.376,0.988,0.0272216796875,2.479,1.1,0.1697998046875
33,1661454739.8271694,938.0,859.0,-0.3,500.0,79.0,0.21602033523398456,1053.7864367115315,0.2307056337594986,-0.0,1.376,0.988,0.0272216796875,2.479,1.1,0.1697998046875
34,1661454739.8689442,934.5,858.5,-0.3,500.0,76.0,0.2080561367910258,1053.0670771041828,0.32683297991752625,-0.0,1.376,0.988,0.0272216796875,2.479,1.1,0.1697998046875
35,1661454739.8950865,938.0,858.5,-0.3,500.0,79.5,0.2173450278477986,1053.3299968068818,0.28838205337524414,-0.0,1.376,0.988,0.0272216796875,2.479,1.1,0.1697998046875
36,1661454739.920326,938.0,858.5,-0.3,500.0,79.5,0.2173450278477986,1053.3299968068818,0.28838205337524414,-0.0,1.376,0.988,0.0272216796875,2.479,1.1,0.1697998046875
37,1661454739.934503,938.0,859.0,-0.3,500.0,79.0,0.21602033523398456,1053.7864367115315,0.28838205337524414,-0.0,1.376,0.988,0.0272216796875,2.479,1.1,0.1697998046875
38,1661454739.9603648,938.0,859.0,-0.3,500.0,79.0,0.21602033523398456,1053.7864367115315,0.28838205337524414,-0.0,1.376,0.988,0.0272216796875,2.479,1.1,0.1697998046875
39,1661454739.9744709,932.5,860.5,-0.3,500.0,72.0,0.19739555984988078,1054.6145167055845,0.2691566050052643,-0.0,1.376,0.988,0.0272216796875,2.479,1.1,0.1697998046875
40,1661454739.9945457,932.5,860.5,-0.3,500.0,72.0,0.19739555984988078,1054.6145167055845,0.2691566050052643,-0.0,1.376,0.988,0.0272216796875,2.479,1.1,0.1697998046875
41,1661454740.034924,931.0,860.5,-0.3,500.0,70.5,0.19338595824191804,1054.4295046915936,0.2691566050052643,-0.0,1.376,0.988,0.0272216796875,2.479,1.1,0.1697998046875
42,1661454740.0443866,931.0,861.5,-0.3,500.0,69.5,0.19070937973295507,1055.278436106904,0.28838205337524414,-0.0,1.376,0.988,0.0272216796875,2.479,1.1,0.1697998046875
43,1661454740.0639453,931.0,861.5,-0.3,500.0,69.5,0.19070937973295507,1055.278436106904,0.28838205337524414,-0.0,1.376,0.988,0.0272216796875,2.479,1.1,0.1697998046875
44,1661454740.0878277,931.0,861.5,-0.3,500.0,69.5,0.19070937973295507,1055.278436106904,0.28838205337524414,-0.0,1.376,0.988,0.0272216796875,2.479,1.1,0.1697998046875
45,1661454740.0915978,931.0,861.5,-0.3,500.0,69.5,0.19070937973295507,1055.278436106904,0.28838205337524414,-0.0,1.376,0.988,0.0272216796875,2.479,1.1,0.1697998046875
46,1661454740.1221116,927.5,861.0,-0.3,500.0,66.5,0.18266316745403702,1054.3431365576937,0.3076075315475464,-0.0,1.376,0.988,0.0272216796875,2.479,1.1,0.1697998046875
47,1661454740.1579924,927.5,861.0,-0.3,500.0,66.5,0.18266316745403702,1054.3431365576937,0.3076075315475464,-0.0,1.376,0.988,0.0272216796875,2.479,1.1,0.1697998046875
48,1661454740.1941133,926.0,859.5,-0.3,500.0,66.5,0.18266316745403702,1052.8680914296676,0.32683297991752625,-0.0,1.376,0.988,0.0272216796875,2.479,1.1,0.1697998046875
49,1661454740.2140586,925.0,859.5,-0.3,500.0,65.5,0.1799757192981029,1052.7037376680335,0.32683297991752625,-0.0,1.376,0.988,0.0272216796875,2.479,1.1,0.1697998046875
50,1661454740.2504299,925.0,859.5,-0.3,500.0,65.5,0.1799757192981029,1052.7037376680335,0.32683297991752625,-0.0,1.376,0.988,0.0272216796875,2.479,1.1,0.1697998046875
51,1661454740.2658365,922.5,861.5,-0.3,500.0,61.0,0.1678501566600175,1053.839555718683,0.384509414434433,-0.0,1.376,0.988,0.0272216796875,2.479,1.1,0.1697998046875
52,1661454740.2791593,917.5,864.0,-0.3,500.0,53.5,0.1475313450896508,1054.5711343836795,0.384509414434433,-0.0,1.376,0.988,0.0272216796875,2.479,1.1,0.1697998046875
53,1661454740.28855,917.5,864.0,-0.3,500.0,53.5,0.1475313450896508,1054.5711343836795,0.384509414434433,-0.0,1.376,0.988,0.0272216796875,2.479,1.1,0.1697998046875
54,1661454740.323438,911.0,864.5,-0.3,500.0,46.5,0.12845543286746772,1053.0435008790475,0.4229603409767151,-0.0,1.376,0.988,0.0272216796875,2.479,1.1,0.1697998046875
55,1661454740.3370862,911.0,864.5,-0.3,500.0,46.5,0.12845543286746772,1053.0435008790475,0.4229603409767151,-0.0,1.376,0.988,0.0272216796875,2.479,1.1,0.1697998046875
56,1661454740.3660717,911.0,864.5,-0.3,500.0,46.5,0.12845543286746772,1053.0435008790475,0.4229603409767151,-0.0,1.376,0.988,0.0272216796875,2.479,1.1,0.1697998046875
57,1661454740.3966799,912.0,867.0,-0.3,500.0,45.0,0.12435499454676144,1055.039452415807,0.4806367754936218,-0.0,1.376,0.988,0.0272216796875,2.479,1.1,0.1697998046875
58,1661454740.406173,912.0,868.0,-0.3,500.0,44.0,0.12161902326134658,1055.6996214794597,0.4806367754936218,-0.0,1.376,0.988,0.0272216796875,2.479,1.1,0.1697998046875
59,1661454740.446891,912.0,868.0,-0.3,500.0,44.0,0.12161902326134658,1055.6996214794597,0.4806367754936218,-0.0,1.376,0.988,0.0272216796875,2.479,1.1,0.1697998046875
60,1661454740.4715214,906.5,872.0,-0.3,500.0,34.5,0.09554156077690333,1056.119701139389,0.5190876722335815,-0.0,1.376,0.988,0.0272216796875,2.479,1.1,0.1697998046875
61,1661454740.5182118,906.5,872.0,-0.3,500.0,34.5,0.09554156077690333,1056.119701139389,0.5190876722335815,-0.0,1.376,0.988,0.0272216796875,2.479,1.1,0.1697998046875
62,1661454740.5429616,902.0,872.5,-0.3,500.0,29.5,0.08176176385898141,1054.4517695020832,0.5767641067504883,-0.0,1.376,0.988,0.0272216796875,2.479,1.1,0.1697998046875
63,1661454740.5666957,902.0,874.0,-0.3,500.0,28.0,0.07762150873739347,1055.257429020059,0.5767641067504883,-0.0,1.376,0.988,0.0272216796875,2.479,1.1,0.1697998046875
64,1661454740.5749192,902.0,874.0,-0.3,500.0,28.0,0.07762150873739347,1055.257429020059,0.5767641067504883,-0.0,1.376,0.988,0.0272216796875,2.479,1.1,0.1697998046875
65,1661454740.588555,902.0,874.0,-0.3,500.0,28.0,0.07762150873739347,1055.257429020059,0.5767641067504883,-0.0,1.376,0.988,0.0272216796875,2.479,1.1,0.1697998046875
66,1661454740.6135018,901.0,878.5,-0.3,500.0,22.5,0.06241880999595735,1057.0624371856893,0.6152150630950928,0.05767640843987465,1.376,0.988,0.0272216796875,2.479,1.1,0.1697998046875
67,1661454740.6532285,901.0,881.5,-0.3,500.0,19.5,0.05411378422907827,1058.4899844941801,0.6152150630950928,0.05767640843987465,1.376,0.988,0.0272216796875,2.479,1.1,0.1697998046875
68,1661454740.699143,899.0,886.0,-0.3,500.0,13.0,0.03609542693579677,1059.337308335459,0.6536659598350525,-0.0,1.376,0.988,0.0272216796875,2.479,1.1,0.1697998046875
69,1661454740.717568,899.0,886.0,-0.3,500.0,13.0,0.03609542693579677,1059.337308335459,0.6536659598350525,-0.0,1.376,0.988,0.0272216796875,2.479,1.1,0.1697998046875
70,1661454740.7475498,899.0,886.0,-0.3,500.0,13.0,0.03609542693579677,1059.337308335459,0.6536659598350525,-0.0,1.376,0.988,0.0272216796875,2.479,1.1,0.1697998046875
71,1661454740.788775,895.5,888.0,-0.3,500.0,7.5,0.02083032003621708,1057.978762155161,0.6728914976119995,-0.0,1.376,0.988,0.0272216796875,2.479,1.1,0.1697998046875
72,1661454740.824466,891.0,895.0,-0.3,500.0,-4.0,-0.011110653897607473,1057.1569676332504,0.7305678725242615,-0.0,1.376,0.988,0.0272216796875,2.479,1.1,0.1697998046875
73,1661454740.842906,891.0,895.0,-0.3,500.0,-4.0,-0.011110653897607473,1057.1569676332504,0.7305678725242615,-0.0,1.376,0.988,0.0272216796875,2.479,1.1,0.1697998046875
74,1661454740.8615782,891.0,895.0,-0.3,500.0,-4.0,-0.011110653897607473,1057.1569676332504,0.7305678725242615,-0.0,1.376,0.988,0.0272216796875,2.479,1.1,0.1697998046875
75,1661454740.8800528,891.0,895.0,-0.3,500.0,-4.0,-0.011110653897607473,1057.1569676332504,0.7305678725242615,-0.0,1.376,0.988,0.0272216796875,2.479,1.1,0.1697998046875
76,1661454740.907758,888.5,905.0,-0.3,500.0,-16.5,-0.04580127978157396,1057.4315790278295,0.7497933506965637,-0.0,1.376,0.988,0.0272216796875,2.479,1.1,0.1697998046875
77,1661454740.947044,888.5,905.0,-0.3,500.0,-16.5,-0.04580127978157396,1057.4315790278295,0.7497933506965637,-0.0,1.376,0.988,0.0272216796875,2.479,1.1,0.1697998046875
78,1661454740.9918277,889.0,915.5,-0.3,500.0,-26.5,-0.07347858542403309,1059.2313261169693,0.7305678725242615,-0.0,1.376,0.988,0.0272216796875,2.479,1.1,0.1697998046875
79,1661454741.0158963,889.0,915.5,-0.3,500.0,-26.5,-0.07347858542403309,1059.2313261169693,0.7305678725242615,-0.0,1.376,0.988,0.0272216796875,2.479,1.1,0.1697998046875
80,1661454741.0408995,883.0,917.5,-0.3,500.0,-34.5,-0.09554156077690333,1053.7140559810773,0.7882443070411682,-0.0,1.376,0.988,0.0272216796875,2.479,1.1,0.1697998046875
81,1661454741.0703893,883.0,920.5,-0.3,500.0,-37.5,-0.10379234045704283,1053.7567617860752,0.7882443070411682,-0.0,1.376,0.988,0.0272216796875,2.479,1.1,0.1697998046875
82,1661454741.0904965,883.0,920.5,-0.3,500.0,-37.5,-0.10379234045704283,1053.7567617860752,0.7882443070411682,-0.0,1.376,0.988,0.0272216796875,2.479,1.1,0.1697998046875
83,1661454741.124764,886.5,937.5,-0.3,500.0,-51.0,-0.1407301939902253,1056.5339753738187,0.8074697852134705,-0.0,1.376,0.988,0.0272216796875,2.479,1.1,0.1697998046875
84,1661454741.1440978,886.5,937.5,-0.3,500.0,-51.0,-0.1407301939902253,1056.5339753738187,0.8074697852134705,-0.0,1.376,0.988,0.0272216796875,2.479,1.1,0.1697998046875
85,1661454741.168003,886.5,937.5,-0.3,500.0,-51.0,-0.1407301939902253,1056.5339753738187,0.8651461601257324,-0.0,1.376,0.988,0.0272216796875,2.479,1.1,0.1697998046875
86,1661454741.1759183,886.5,943.5,-0.3,500.0,-57.0,-0.15702977597173187,1055.7648642320155,0.8651461601257324,-0.0,1.376,0.988,0.0272216796875,2.479,1.1,0.1697998046875
87,1661454741.2106616,886.0,948.0,-0.3,500.0,-62.0,-0.17054916496580147,1054.4213793879526,0.8651461601257324,-0.0,1.376,0.988,0.0272216796875,2.479,1.1,0.1697998046875
88,1661454741.2349248,886.0,948.0,-0.3,500.0,-62.0,-0.17054916496580147,1054.4213793879526,0.8651461601257324,-0.0,1.376,0.988,0.0272216796875,2.479,1.1,0.1697998046875
89,1661454741.264194,889.0,959.0,-0.3,500.0,-70.0,-0.1920480172407301,1055.6182832119293,0.9804990291595459,-0.0,1.376,0.988,0.0272216796875,2.479,1.1,0.1697998046875
90,1661454741.2877958,889.0,959.0,-0.3,500.0,-70.0,-0.1920480172407301,1055.6182832119293,0.9804990291595459,-0.0,1.376,0.988,0.0272216796875,2.479,1.1,0.1697998046875
91,1661454741.311916,889.0,959.0,-0.3,500.0,-70.0,-0.1920480172407301,1055.6182832119293,0.9804990291595459,-0.0,1.376,0.988,0.0272216796875,2.479,1.1,0.1697998046875
92,1661454741.3258421,888.5,969.0,-0.3,500.0,-80.5,-0.21999208535466896,1052.1141913645004,0.9804990291595459,-0.0,1.376,0.988,0.0272216796875,2.479,1.1,0.1697998046875
93,1661454741.3392034,889.0,969.0,-0.3,500.0,-80.0,-0.21866894587394195,1052.7635117939385,0.8459206819534302,-0.0,1.376,0.988,0.0272216796875,2.479,1.1,0.1697998046875
94,1661454741.3802078,889.0,976.0,-0.3,500.0,-87.0,-0.23712027872466288,1050.3469515298357,0.8459206819534302,-0.0,1.376,0.988,0.0272216796875,2.479,1.1,0.1697998046875
95,1661454741.3834932,889.0,976.0,-0.3,500.0,-87.0,-0.23712027872466288,1050.3469515298357,0.8459206819534302,-0.0,1.376,0.988,0.0272216796875,2.479,1.1,0.1697998046875
96,1661454741.4110336,895.0,996.0,-0.3,500.0,-101.0,-0.27352379524265996,1050.3083577203588,0.8459206819534302,-0.0,1.376,0.988,0.0272216796875,2.479,1.1,0.1697998046875
97,1661454741.413623,895.0,996.0,-0.3,500.0,-101.0,-0.27352379524265996,1050.3083577203588,0.8459206819534302,-0.0,1.376,0.988,0.0272216796875,2.479,1.1,0.1697998046875
98,1661454741.4253151,895.0,996.0,-0.3,500.0,-101.0,-0.27352379524265996,1050.3083577203588,0.8651461601257324,-0.0,1.376,0.988,0.0272216796875,2.479,1.1,0.1697998046875
99,1661454741.4579215,895.0,996.0,-0.3,500.0,-101.0,-0.27352379524265996,1050.3083577203588,0.8651461601257324,-0.0,1.376,0.988,0.0272216796875,2.479,1.1,0.1697998046875
100,1661454741.515771,897.0,1007.5,-0.3,500.0,-110.5,-0.297815604867077,1047.5280801008385,0.8651461601257324,-0.0,1.376,0.988,0.0272216796875,2.479,1.1,0.1697998046875
101,1661454741.5323412,897.0,1007.5,-0.3,500.0,-110.5,-0.297815604867077,1047.5280801008385,0.8074697852134705,-0.0,1.376,0.988,0.0272216796875,2.479,1.1,0.1697998046875
102,1661454741.5637429,897.0,1018.0,-0.3,500.0,-121.0,-0.3242484676026597,1041.705251920423,0.8074697852134705,-0.0,1.376,0.988,0.0272216796875,2.479,1.1,0.1697998046875
103,1661454741.588009,905.5,1028.0,-0.3,500.0,-122.5,-0.32798747976184195,1048.869625456169,0.8074697852134705,-0.0,1.376,0.988,0.0272216796875,2.479,1.1,0.1697998046875
104,1661454741.59078,905.5,1028.0,-0.3,500.0,-122.5,-0.32798747976184195,1048.869625456169,0.8074697852134705,-0.0,1.376,0.988,0.0272216796875,2.479,1.1,0.1697998046875
105,1661454741.6126614,905.5,1028.0,-0.3,500.0,-122.5,-0.32798747976184195,1048.869625456169,0.8074697852134705,-0.0,1.376,0.988,0.0272216796875,2.479,1.1,0.1697998046875
106,1661454741.6205904,909.0,1046.5,-0.3,500.0,-137.5,-0.36484500710143286,1042.5568219072923,0.8074697852134705,-0.0,1.376,0.988,0.0272216796875,2.479,1.1,0.1697998046875
107,1661454741.6329,911.0,1046.5,-0.3,500.0,-135.5,-0.3599877699282296,1045.778524563053,0.8843716382980347,-0.0,1.376,0.988,0.0272216796875,2.479,1.1,0.1697998046875
108,1661454741.689232,911.0,1046.5,-0.3,500.0,-135.5,-0.3599877699282296,1045.778524563053,0.8843716382980347,-0.0,1.376,0.988,0.0272216796875,2.479,1.1,0.1697998046875
109,1661454741.692165,911.0,1046.5,-0.3,500.0,-135.5,-0.3599877699282296,1045.778524563053,0.8843716382980347,-0.0,1.376,0.988,0.0272216796875,2.479,1.1,0.1697998046875
110,1661454741.7162652,916.0,1046.5,-0.3,500.0,-130.5,-0.34776698785701526,1053.775012038998,0.9228225350379944,0.05767640843987465,1.376,0.988,0.0272216796875,2.479,1.1,0.1697998046875
111,1661454741.7302613,921.0,1067.0,-0.3,500.0,-146.0,-0.3852864554278787,1047.7269305297796,0.9228225350379944,0.05767640843987465,1.376,0.988,0.0272216796875,2.479,1.1,0.1697998046875
112,1661454741.769856,921.0,1067.0,-0.3,500.0,-146.0,-0.3852864554278787,1047.7269305297796,0.9228225350379944,0.05767640843987465,1.376,0.988,0.0272216796875,2.479,1.1,0.1697998046875
113,1661454741.778797,927.5,1071.5,-0.3,500.0,-144.0,-0.3805063771123649,1055.213759191097,0.9228225350379944,0.21148017048835754,1.376,0.988,0.0272216796875,2.479,1.1,0.1697998046875
114,1661454741.7981973,927.5,1091.0,-0.3,500.0,-163.5,-0.42631352139464984,1040.2041482582558,0.769018828868866,0.21148017048835754,1.376,0.988,0.0272216796875,2.479,1.1,0.1697998046875
115,1661454741.8173928,927.5,1091.0,-0.3,500.0,-163.5,-0.42631352139464984,1040.2041482582558,0.769018828868866,0.21148017048835754,1.376,0.988,0.0272216796875,2.479,1.1,0.1697998046875
116,1661454741.8587022,934.5,1101.0,-0.3,500.0,-166.5,-0.43320016843163495,1044.1114570365046,0.769018828868866,0.24993112683296204,1.376,0.988,0.0272216796875,2.479,1.1,0.1697998046875
117,1661454741.8726764,938.5,1110.0,-0.3,500.0,-171.5,-0.4445809349670744,1043.5385968884814,0.769018828868866,0.24993112683296204,1.376,0.988,0.0272216796875,2.479,1.1,0.1697998046875
