,time[s],front[mm],rear[mm],PID Align setpoint,PID Distance setpoint,error[mm],angle[rad],distance[mm],rw_speed[rad/s],lw_speeed[rad/s],pozyx_x_1,pozyx_y_1,pozyx_rot_y_1,pozyx_x_2,pozyx_y_2,pozyx_rot_2
0,1661452243.9932656,98.5,114.0,0.3,500.0,-15.5,-0.04302897992021283,267.98783076591684,0.0,-0.0,1.3,1.117,-0.1207275390625,2.479,1.1,0.1697998046875
1,1661452244.05561,98.5,115.0,0.3,500.0,-16.5,-0.04580127978157396,268.2600482910593,0.0,-0.0,1.3,1.117,-0.1207275390625,2.479,1.1,0.1697998046875
2,1661452244.0758631,99.5,113.0,0.3,500.0,-13.5,-0.03748243669166149,268.4363220198787,0.0,-0.0,1.3,1.117,-0.1207275390625,2.479,1.1,0.1697998046875
3,1661452244.0896173,99.5,113.0,0.3,500.0,-13.5,-0.03748243669166149,268.4363220198787,0.0,-0.0,1.3,1.117,-0.1207275390625,2.479,1.1,0.1697998046875
4,1661452244.1199195,99.5,113.0,0.3,500.0,-13.5,-0.03748243669166149,268.4363220198787,0.0,-0.0,1.3,1.117,-0.1207275390625,2.479,1.1,0.1697998046875
5,1661452244.1826832,101.5,115.0,0.3,500.0,-13.5,-0.03748243669166149,270.434917251297,0.0,-0.0,1.3,1.117,-0.1207275390625,2.479,1.1,0.1697998046875
6,1661452244.2143807,98.5,112.5,0.3,500.0,-14.0,-0.03886930217792175,267.57552087806954,0.0,-0.0,1.3,1.117,-0.1207275390625,2.479,1.1,0.1697998046875
7,1661452244.2388217,98.5,112.5,0.3,500.0,-14.0,-0.03886930217792175,267.57552087806954,0.0,-0.0,1.3,1.117,-0.1207275390625,2.479,1.1,0.1697998046875
8,1661452244.2650464,98.5,112.5,0.3,500.0,-14.0,-0.03886930217792175,267.57552087806954,0.0,-0.0,1.3,1.117,-0.1207275390625,2.479,1.1,0.1697998046875
9,1661452244.2923064,101.5,114.0,0.3,500.0,-12.5,-0.03470827822527491,270.15663865964507,0.0,-0.0,1.3,1.117,-0.1207275390625,2.479,1.1,0.1697998046875
10,1661452244.32705,101.5,114.0,0.3,500.0,-12.5,-0.03470827822527491,270.15663865964507,0.0,-0.0,1.3,1.117,-0.1207275390625,2.479,1.1,0.1697998046875
11,1661452244.342381,101.5,114.0,0.3,500.0,-12.5,-0.03470827822527491,270.15663865964507,0.0,-0.0,1.3,1.117,-0.1207275390625,2.479,1.1,0.1697998046875
12,1661452244.3643446,100.5,118.5,0.3,500.0,-18.0,-0.049958395721942765,270.66188383589594,0.0,-0.0,1.3,1.117,-0.1207275390625,2.479,1.1,0.1697998046875
13,1661452244.3688815,100.5,118.5,0.3,500.0,-18.0,-0.049958395721942765,270.66188383589594,0.0,-0.0,1.3,1.117,-0.1207275390625,2.479,1.1,0.1697998046875
14,1661452244.3776095,100.5,118.5,0.3,500.0,-18.0,-0.049958395721942765,270.66188383589594,0.0,-0.0,1.3,1.117,-0.1207275390625,2.479,1.1,0.1697998046875
15,1661452244.3859303,100.5,118.5,0.3,500.0,-18.0,-0.049958395721942765,270.66188383589594,0.0,-0.0,1.3,1.117,-0.1207275390625,2.479,1.1,0.1697998046875
16,1661452244.3994522,100.5,118.5,0.3,500.0,-18.0,-0.049958395721942765,270.66188383589594,0.0,-0.0,1.3,1.117,-0.1207275390625,2.479,1.1,0.1697998046875
17,1661452244.4131968,100.5,118.5,0.3,500.0,-18.0,-0.049958395721942765,270.66188383589594,0.0,-0.0,1.3,1.117,-0.1207275390625,2.479,1.1,0.1697998046875
18,1661452244.4221442,100.5,118.5,0.3,500.0,-18.0,-0.049958395721942765,270.66188383589594,0.0,-0.0,1.3,1.117,-0.1207275390625,2.479,1.1,0.1697998046875
19,1661452244.4312177,100.5,118.5,0.3,500.0,-18.0,-0.049958395721942765,270.66188383589594,0.0,0.01922547072172165,1.3,1.117,-0.1207275390625,2.479,1.1,0.1697998046875
20,1661452244.4466536,100.5,114.5,0.3,500.0,-14.0,-0.03886930217792175,269.5740102456236,0.0,0.01922547072172165,1.3,1.117,-0.1207275390625,2.479,1.1,0.1697998046875
21,1661452244.4938807,100.0,115.5,0.3,500.0,-15.5,-0.04302897992021283,269.48644236032055,0.0,0.05767640843987465,1.3,1.117,-0.1207275390625,2.479,1.1,0.1697998046875
22,1661452244.5012944,99.5,115.5,0.3,500.0,-16.0,-0.04441521524691083,269.1232193085915,0.0,0.05767640843987465,1.3,1.117,-0.12078857421875,2.479,1.1,0.1697998046875
23,1661452244.519147,99.5,115.5,0.3,500.0,-16.0,-0.04441521524691083,269.1232193085915,0.0,0.05767640843987465,1.3,1.117,-0.12078857421875,2.479,1.1,0.1697998046875
24,1661452244.5330245,99.5,115.5,0.3,500.0,-16.0,-0.04441521524691083,269.1232193085915,0.0,0.05767640843987465,1.3,1.117,-0.12091064453125,2.479,1.1,0.1697998046875
25,1661452244.5521262,99.5,115.5,0.3,500.0,-16.0,-0.04441521524691083,269.1232193085915,0.0,0.05767640843987465,1.3,1.117,-0.12091064453125,2.479,1.1,0.1697998046875
26,1661452244.5602643,99.5,115.5,0.3,500.0,-16.0,-0.04441521524691083,269.1232193085915,0.0,0.05767640843987465,1.3,1.117,-0.12091064453125,2.479,1.1,0.1697998046875
27,1661452244.569759,99.5,112.5,0.3,500.0,-13.0,-0.03609542693579677,268.29734768643937,0.0,0.05767640843987465,1.3,1.117,-0.12091064453125,2.479,1.1,0.1697998046875
28,1661452244.5839741,99.5,114.0,0.3,500.0,-14.5,-0.04025601808295573,268.7126776799673,0.0,0.09612735360860825,1.3,1.117,-0.12091064453125,2.479,1.1,0.1697998046875
29,1661452244.5877776,99.5,114.0,0.3,500.0,-14.5,-0.04025601808295573,268.7126776799673,0.0,0.09612735360860825,1.3,1.117,-0.12091064453125,2.479,1.1,0.1697998046875
30,1661452244.6069877,99.5,114.0,0.3,500.0,-14.5,-0.04025601808295573,268.7126776799673,0.0,0.09612735360860825,1.3,1.117,-0.12103271484375,2.479,1.1,0.1697998046875
31,1661452244.6152182,99.5,114.0,0.3,500.0,-14.5,-0.04025601808295573,268.7126776799673,0.0,0.09612735360860825,1.3,1.117,-0.1209716796875,2.479,1.1,0.1697998046875
32,1661452244.6511474,99.5,116.0,0.3,500.0,-16.5,-0.04580127978157396,269.2589995957894,0.0,0.17302924394607544,1.3,1.117,-0.1209716796875,2.479,1.1,0.1697998046875
33,1661452244.6966236,100.0,114.5,0.3,500.0,-14.5,-0.04025601808295573,269.21227259792835,0.0,0.17302924394607544,1.3,1.117,-0.1209716796875,2.479,1.1,0.1697998046875
34,1661452244.7053945,103.0,115.5,0.3,500.0,-12.5,-0.03470827822527491,271.6557352519095,0.0,0.24993112683296204,1.3,1.117,-0.1209716796875,2.479,1.1,0.1697998046875
35,1661452244.7229831,103.0,115.5,0.3,500.0,-12.5,-0.03470827822527491,271.6557352519095,0.0,0.24993112683296204,1.3,1.117,-0.1209716796875,2.479,1.1,0.1697998046875
36,1661452244.7317312,103.0,115.5,0.3,500.0,-12.5,-0.03470827822527491,271.6557352519095,0.0,0.24993112683296204,1.3,1.117,-0.1209716796875,2.479,1.1,0.1697998046875
37,1661452244.7351615,103.0,115.5,0.3,500.0,-12.5,-0.03470827822527491,271.6557352519095,0.0,0.24993112683296204,1.3,1.117,-0.1209716796875,2.479,1.1,0.1697998046875
38,1661452244.7869115,98.0,113.0,0.3,500.0,-15.0,-0.04164257909858843,267.3513581416285,0.0,0.32683297991752625,1.301,1.117,-0.1209716796875,2.479,1.1,0.1697998046875
39,1661452244.7955303,98.0,113.0,0.3,500.0,-15.0,-0.04164257909858843,267.3513581416285,0.0,0.32683297991752625,1.301,1.117,-0.1209716796875,2.479,1.1,0.1697998046875
40,1661452244.8207417,98.0,111.0,0.3,500.0,-13.0,-0.03609542693579677,266.79832474023476,0.0,0.32683297991752625,1.301,1.117,-0.1209716796875,2.479,1.1,0.1697998046875
41,1661452244.8237038,98.0,111.0,0.3,500.0,-13.0,-0.03609542693579677,266.79832474023476,0.0,0.32683297991752625,1.301,1.117,-0.1209716796875,2.479,1.1,0.1697998046875
42,1661452244.8491552,99.0,113.5,0.3,500.0,-14.5,-0.04025601808295573,268.21308276200637,0.0,0.40373489260673523,1.301,1.117,-0.1209716796875,2.479,1.1,0.1697998046875
43,1661452244.8577077,99.0,113.5,0.3,500.0,-14.5,-0.04025601808295573,268.21308276200637,0.0,0.40373489260673523,1.301,1.117,-0.1209716796875,2.479,1.1,0.1697998046875
44,1661452244.8931365,99.0,113.5,0.3,500.0,-14.5,-0.04025601808295573,268.21308276200637,0.0,0.40373489260673523,1.301,1.117,-0.1209716796875,2.479,1.1,0.1697998046875
45,1661452244.9127011,99.0,113.5,0.3,500.0,-14.5,-0.04025601808295573,268.21308276200637,0.0,0.40373489260673523,1.301,1.117,-0.1209716796875,2.479,1.1,0.1697998046875
46,1661452244.9258504,99.0,113.5,0.3,500.0,-14.5,-0.04025601808295573,268.21308276200637,0.0,0.40373489260673523,1.301,1.117,-0.1209716796875,2.479,1.1,0.1697998046875
47,1661452244.9569664,101.5,114.0,0.3,500.0,-12.5,-0.03470827822527491,270.15663865964507,0.0,0.4614112675189972,1.301,1.117,-0.1209716796875,2.479,1.1,0.1697998046875
48,1661452244.987142,101.5,114.0,0.3,500.0,-12.5,-0.03470827822527491,270.15663865964507,0.0,0.5383132100105286,1.301,1.117,-0.1209716796875,2.479,1.1,0.1697998046875
49,1661452244.9966125,97.5,115.5,0.3,500.0,-18.0,-0.049958395721942765,267.6656268192624,0.0,0.5383132100105286,1.301,1.117,-0.1209716796875,2.479,1.1,0.1697998046875
50,1661452245.0248787,97.5,115.5,0.3,500.0,-18.0,-0.049958395721942765,267.6656268192624,0.0,0.5383132100105286,1.301,1.117,-0.121337890625,2.479,1.1,0.1697998046875
51,1661452245.0388396,97.5,115.5,0.3,500.0,-18.0,-0.049958395721942765,267.6656268192624,0.0,0.5383132100105286,1.301,1.117,-0.12310791015625,2.479,1.1,0.1697998046875
52,1661452245.0420642,97.5,115.5,0.3,500.0,-18.0,-0.049958395721942765,267.6656268192624,0.0,0.5383132100105286,1.301,1.117,-0.12310791015625,2.479,1.1,0.1697998046875
53,1661452245.0514297,97.5,115.5,0.3,500.0,-18.0,-0.049958395721942765,267.6656268192624,0.0,0.5383132100105286,1.301,1.117,-0.12310791015625,2.479,1.1,0.1697998046875
54,1661452245.0714824,97.5,115.5,0.3,500.0,-18.0,-0.049958395721942765,267.6656268192624,0.0,0.5383132100105286,1.301,1.117,-0.12481689453125,2.479,1.1,0.1697998046875
55,1661452245.088921,103.5,113.0,0.3,500.0,-9.5,-0.026382765939742113,271.3083282587479,0.0,0.32683297991752625,1.301,1.117,-0.12481689453125,2.479,1.1,0.1697998046875
56,1661452245.092966,103.5,113.0,0.3,500.0,-9.5,-0.026382765939742113,271.3083282587479,0.0,0.32683297991752625,1.301,1.117,-0.125732421875,2.479,1.1,0.1697998046875
57,1661452245.1378005,103.5,113.0,0.3,500.0,-9.5,-0.026382765939742113,271.3083282587479,0.0,0.32683297991752625,1.301,1.117,-0.12652587890625,2.479,1.1,0.1697998046875
58,1661452245.18597,101.0,108.5,0.3,500.0,-7.5,-0.02083032003621708,268.23346259467974,0.0,0.32683297991752625,1.302,1.116,-0.12982177734375,2.479,1.1,0.1697998046875
59,1661452245.196482,101.0,108.5,0.3,500.0,-7.5,-0.02083032003621708,268.23346259467974,0.0,0.32683297991752625,1.302,1.116,-0.12982177734375,2.479,1.1,0.1697998046875
60,1661452245.227247,103.5,107.5,0.3,500.0,-4.0,-0.011110653897607473,269.7055742437956,0.0,0.3460584878921509,1.304,1.115,-0.1312255859375,2.479,1.1,0.1697998046875
61,1661452245.2368295,103.5,107.5,0.3,500.0,-4.0,-0.011110653897607473,269.7055742437956,0.0,0.3460584878921509,1.306,1.114,-0.13214111328125,2.479,1.1,0.1697998046875
62,1661452245.2404315,103.5,107.5,0.3,500.0,-4.0,-0.011110653897607473,269.7055742437956,0.0,0.3460584878921509,1.306,1.114,-0.13214111328125,2.479,1.1,0.1697998046875
63,1661452245.253976,103.5,107.5,0.3,500.0,-4.0,-0.011110653897607473,269.7055742437956,0.0,0.3460584878921509,1.306,1.114,-0.13214111328125,2.479,1.1,0.1697998046875
64,1661452245.2678108,103.5,107.5,0.3,500.0,-4.0,-0.011110653897607473,269.7055742437956,0.0,0.3460584878921509,1.306,1.114,-0.13214111328125,2.479,1.1,0.1697998046875
65,1661452245.2774165,103.5,107.5,0.3,500.0,-4.0,-0.011110653897607473,269.7055742437956,0.0,0.3460584878921509,1.308,1.114,-0.13372802734375,2.479,1.1,0.1697998046875
66,1661452245.286983,103.0,102.0,0.3,500.0,1.0,0.0027777706333206847,267.6934116786447,0.0,0.3460584878921509,1.311,1.113,-0.13525390625,2.479,1.1,0.1697998046875
67,1661452245.300973,103.0,102.0,0.3,500.0,1.0,0.0027777706333206847,267.6934116786447,0.0,0.3460584878921509,1.311,1.113,-0.13525390625,2.479,1.1,0.1697998046875
68,1661452245.3268833,103.0,102.0,0.3,500.0,1.0,0.0027777706333206847,267.6934116786447,0.0,0.3460584878921509,1.315,1.113,-0.1368408203125,2.479,1.1,0.1697998046875
69,1661452245.3469272,103.0,102.0,0.3,500.0,1.0,0.0027777706333206847,267.6934116786447,0.0,0.3460584878921509,1.32,1.114,-0.1385498046875,2.479,1.1,0.1697998046875
70,1661452245.3617785,108.0,98.0,0.3,500.0,10.0,0.02777063659342104,269.84035944175326,0.0384509414434433,0.4229603409767151,1.32,1.114,-0.1385498046875,2.479,1.1,0.1697998046875
71,1661452245.3768015,108.0,98.0,0.3,500.0,10.0,0.02777063659342104,269.84035944175326,0.0384509414434433,0.4229603409767151,1.325,1.114,-0.1396484375,2.479,1.1,0.1697998046875
72,1661452245.3852086,108.0,98.0,0.3,500.0,10.0,0.02777063659342104,269.84035944175326,0.0384509414434433,0.4229603409767151,1.325,1.114,-0.1396484375,2.479,1.1,0.1697998046875
73,1661452245.4041402,108.0,98.0,0.3,500.0,10.0,0.02777063659342104,269.84035944175326,0.0384509414434433,0.4229603409767151,1.33,1.117,-0.1414794921875,2.479,1.1,0.1697998046875
74,1661452245.425773,111.0,98.0,0.3,500.0,13.0,0.03609542693579677,271.85058726262815,0.0384509414434433,0.4229603409767151,1.336,1.12,-0.14349365234375,2.479,1.1,0.1697998046875
75,1661452245.4298046,111.0,95.5,0.3,500.0,15.5,0.04302897992021283,271.01280602128736,0.0,0.4614112675189972,1.336,1.12,-0.14349365234375,2.479,1.1,0.1697998046875
76,1661452245.4599166,111.0,95.5,0.3,500.0,15.5,0.04302897992021283,271.01280602128736,0.0,0.4614112675189972,1.344,1.126,-0.14556884765625,2.479,1.1,0.1697998046875
77,1661452245.4931655,111.0,95.5,0.3,500.0,15.5,0.04302897992021283,271.01280602128736,0.0,0.5190876722335815,1.353,1.133,-0.14697265625,2.479,1.1,0.1697998046875
78,1661452245.5259485,109.5,91.5,0.3,500.0,18.0,0.049958395721942765,268.6643791581402,0.0,0.5190876722335815,1.363,1.141,-0.14923095703125,2.479,1.1,0.1697998046875
79,1661452245.561942,109.5,91.5,0.3,500.0,18.0,0.049958395721942765,268.6643791581402,0.0,0.5190876722335815,1.373,1.148,-0.1514892578125,2.479,1.1,0.1697998046875
80,1661452245.599947,111.5,86.0,0.3,500.0,25.5,0.07071522321994636,268.03675606762954,0.0,0.5383132100105286,1.389,1.162,-0.15509033203125,2.479,1.1,0.1697998046875
81,1661452245.6195114,111.5,86.0,0.3,500.0,25.5,0.07071522321994636,268.03675606762954,0.0,0.5383132100105286,1.389,1.162,-0.15509033203125,2.479,1.1,0.1697998046875
82,1661452245.6336744,111.5,86.0,0.3,500.0,25.5,0.07071522321994636,268.03675606762954,0.0,0.5383132100105286,1.397,1.168,-0.157470703125,2.479,1.1,0.1697998046875
83,1661452245.6548564,111.5,85.0,0.3,500.0,26.5,0.07347858542403309,267.67853666370826,0.0,0.5767641067504883,1.397,1.168,-0.157470703125,2.479,1.1,0.1697998046875
84,1661452245.6644378,117.0,85.0,0.3,500.0,32.0,0.08865588186743746,271.15310774412023,0.0,0.5767641067504883,1.404,1.174,-0.16009521484375,2.479,1.1,0.1697998046875
85,1661452245.673235,117.0,85.0,0.3,500.0,32.0,0.08865588186743746,271.15310774412023,0.0,0.5767641067504883,1.411,1.176,-0.16265869140625,2.479,1.1,0.1697998046875
86,1661452245.6871862,117.0,85.0,0.3,500.0,32.0,0.08865588186743746,271.15310774412023,0.0,0.5767641067504883,1.411,1.176,-0.16265869140625,2.479,1.1,0.1697998046875
87,1661452245.7021146,117.0,85.0,0.3,500.0,32.0,0.08865588186743746,271.15310774412023,0.0,0.5767641067504883,1.414,1.173,-0.16552734375,2.479,1.1,0.1697998046875
88,1661452245.7118976,119.5,82.5,0.3,500.0,37.0,0.10241816439674399,271.76286259520344,0.01922547072172165,0.5767641067504883,1.414,1.173,-0.16552734375,2.479,1.1,0.1697998046875
89,1661452245.7199264,119.5,82.5,0.3,500.0,37.0,0.10241816439674399,271.76286259520344,0.01922547072172165,0.6344404816627502,1.414,1.173,-0.16552734375,2.479,1.1,0.1697998046875
90,1661452245.7437992,119.5,82.5,0.3,500.0,37.0,0.10241816439674399,271.76286259520344,0.01922547072172165,0.6344404816627502,1.415,1.168,-0.1663818359375,2.479,1.1,0.1697998046875
91,1661452245.7837121,119.5,82.5,0.3,500.0,37.0,0.10241816439674399,271.76286259520344,0.01922547072172165,0.6344404816627502,1.415,1.162,-0.17010498046875,2.479,1.1,0.1697998046875
92,1661452245.7869313,120.5,80.0,0.3,500.0,40.5,0.11202896242598787,271.41286572587273,0.01922547072172165,0.6728914976119995,1.415,1.162,-0.17010498046875,2.479,1.1,0.1697998046875
93,1661452245.795268,120.5,80.0,0.3,500.0,40.5,0.11202896242598787,271.41286572587273,0.0769018828868866,0.6728914976119995,1.415,1.162,-0.17010498046875,2.479,1.1,0.1697998046875
94,1661452245.8250873,123.5,78.5,0.3,500.0,45.0,0.12435499454676144,272.62834662708013,0.0769018828868866,0.6728914976119995,1.413,1.149,-0.17584228515625,2.479,1.1,0.1697998046875
95,1661452245.8433073,123.5,78.5,0.3,500.0,45.0,0.12435499454676144,272.62834662708013,0.0769018828868866,0.6728914976119995,1.413,1.149,-0.17584228515625,2.479,1.1,0.1697998046875
96,1661452245.852142,123.5,78.5,0.3,500.0,45.0,0.12435499454676144,272.62834662708013,0.0769018828868866,0.6728914976119995,1.413,1.149,-0.17584228515625,2.479,1.1,0.1697998046875
97,1661452245.8718958,130.5,77.0,0.3,500.0,53.5,0.1475313450896508,276.1203344056065,0.17302924394607544,0.711342453956604,1.413,1.149,-0.17584228515625,2.479,1.1,0.1697998046875
98,1661452245.9085734,130.5,77.0,0.3,500.0,53.5,0.1475313450896508,276.1203344056065,0.17302924394607544,0.711342453956604,1.411,1.138,-0.1839599609375,2.479,1.1,0.1697998046875
99,1661452245.91689,130.5,77.0,0.3,500.0,53.5,0.1475313450896508,276.1203344056065,0.17302924394607544,0.711342453956604,1.411,1.138,-0.1839599609375,2.479,1.1,0.1697998046875
100,1661452245.9376585,130.5,74.0,0.3,500.0,56.5,0.15567456431536808,274.8714481973009,0.2307056337594986,0.711342453956604,1.405,1.137,-0.185791015625,2.479,1.1,0.1697998046875
101,1661452245.9466398,131.0,74.0,0.3,500.0,57.0,0.15702977597173187,275.15568263254295,0.2307056337594986,0.711342453956604,1.405,1.137,-0.185791015625,2.479,1.1,0.1697998046875
102,1661452245.9764662,131.0,74.0,0.3,500.0,57.0,0.15702977597173187,275.15568263254295,0.2307056337594986,0.711342453956604,1.397,1.136,-0.18951416015625,2.479,1.1,0.1697998046875
103,1661452246.0385978,138.0,69.0,0.3,500.0,69.0,0.18937004997584464,276.8768457790972,0.24993112683296204,0.7497933506965637,1.377,1.136,-0.1943359375,2.479,1.1,0.1697998046875
104,1661452246.0810692,138.0,63.5,0.3,500.0,74.5,0.20406390592667634,274.42152386015033,0.2307056337594986,0.7305678725242615,1.364,1.136,-0.19830322265625,2.479,1.1,0.1697998046875
105,1661452246.1007457,139.0,63.5,0.3,500.0,75.5,0.20672613417634575,274.94902202711074,0.2307056337594986,0.7305678725242615,1.335,1.135,-0.20294189453125,2.479,1.1,0.1697998046875
106,1661452246.1145766,139.0,63.5,0.3,500.0,75.5,0.20672613417634575,274.94902202711074,0.2307056337594986,0.7305678725242615,1.335,1.135,-0.20294189453125,2.479,1.1,0.1697998046875
107,1661452246.149345,145.5,62.0,0.3,500.0,83.5,0.227914353118015,277.61630119305966,0.21148017048835754,0.8074697852134705,1.321,1.133,-0.2047119140625,2.479,1.1,0.1697998046875
108,1661452246.1897593,145.5,62.0,0.3,500.0,83.5,0.227914353118015,277.61630119305966,0.21148017048835754,0.8074697852134705,1.309,1.134,-0.20806884765625,2.479,1.1,0.1697998046875
109,1661452246.216493,145.5,62.0,0.3,500.0,83.5,0.227914353118015,277.61630119305966,0.21148017048835754,0.8074697852134705,1.304,1.134,-0.21502685546875,2.479,1.1,0.1697998046875
110,1661452246.2814474,151.5,55.5,0.3,500.0,96.0,0.26060239174734096,277.4704668221579,0.21148017048835754,0.8074697852134705,1.324,1.148,-0.2216796875,2.479,1.1,0.1697998046875
111,1661452246.322898,158.5,55.0,0.3,500.0,103.5,0.27994982252379114,280.5121030845347,0.21148017048835754,0.7882443070411682,1.34,1.159,-0.22479248046875,2.479,1.1,0.1697998046875
112,1661452246.3326604,158.5,55.0,0.3,500.0,103.5,0.27994982252379114,280.5121030845347,0.21148017048835754,0.7882443070411682,1.359,1.169,-0.22698974609375,2.479,1.1,0.1697998046875
113,1661452246.378924,163.5,53.5,0.3,500.0,110.0,0.29654580906970046,282.0174521744726,0.2307056337594986,0.7882443070411682,1.38,1.181,-0.23077392578125,2.479,1.1,0.1697998046875
114,1661452246.3965843,163.5,53.5,0.3,500.0,110.0,0.29654580906970046,282.0174521744726,0.2307056337594986,0.7882443070411682,1.403,1.193,-0.23388671875,2.479,1.1,0.1697998046875
115,1661452246.4267833,163.5,53.5,0.3,500.0,110.0,0.29654580906970046,282.0174521744726,0.2307056337594986,0.7882443070411682,1.425,1.205,-0.23614501953125,2.479,1.1,0.1697998046875
116,1661452246.4418683,176.5,57.0,0.3,500.0,119.5,0.32050003399806004,289.4556100212949,0.2307056337594986,0.8074697852134705,1.445,1.215,-0.24029541015625,2.479,1.1,0.1697998046875
