,time[s],front[mm],rear[mm],PID Align setpoint,PID Distance setpoint,error[mm],angle[rad],distance[mm],rw_speed[rad/s],lw_speeed[rad/s],pozyx_x_1,pozyx_y_1,pozyx_rot_y_1,pozyx_x_2,pozyx_y_2,pozyx_rot_2
0,1661456879.2250278,420.0,614.5,-0.20091619746672063,500.0,-194.5,-0.4953483033549891,566.9720658222402,0.0,-0.0,1.376,0.988,0.0272216796875,2.479,1.1,0.1697998046875
1,1661456879.2465503,420.0,614.5,-0.20091619746672063,500.0,-194.5,-0.4953483033549891,566.9720658222402,0.0,-0.0,1.376,0.988,0.0272216796875,2.479,1.1,0.1697998046875
2,1661456879.2781427,419.5,614.5,-0.19901190234068203,500.0,-195.0,-0.49642275340488184,566.3373007802273,0.0,-0.0,1.376,0.988,0.0272216796875,2.479,1.1,0.1697998046875
3,1661456879.3045728,419.5,614.5,-0.19901190234068203,500.0,-195.0,-0.49642275340488184,566.3373007802273,0.0,-0.0,1.376,0.988,0.0272216796875,2.479,1.1,0.1697998046875
4,1661456879.325672,419.5,614.5,-0.19901190234068203,500.0,-195.0,-0.49642275340488184,566.3373007802273,0.0,-0.0,1.376,0.988,0.0272216796875,2.479,1.1,0.1697998046875
5,1661456879.3522282,419.5,617.0,-0.19606992889209449,500.0,-197.5,-0.5017762601457444,565.3566429640315,0.0,-0.0,1.376,0.988,0.0272216796875,2.479,1.1,0.1697998046875
6,1661456879.3821921,419.5,617.0,-0.19606992889209449,500.0,-197.5,-0.5017762601457444,565.3566429640315,0.0,-0.0,1.376,0.988,0.0272216796875,2.479,1.1,0.1697998046875
7,1661456879.4039104,419.5,614.5,-0.19901190234068203,500.0,-195.0,-0.49642275340488184,566.3373007802273,0.0,0.1538037657737732,1.376,0.988,0.0272216796875,2.479,1.1,0.1697998046875
8,1661456879.4466314,418.0,614.5,-0.19330059110266268,500.0,-196.5,-0.4996386072526931,564.4335303675542,0.0,0.1538037657737732,1.376,0.988,0.0272216796875,2.479,1.1,0.1697998046875
9,1661456879.4858854,417.5,614.5,-0.1913973770640205,500.0,-197.0,-0.5007080588399464,563.7991256880068,0.0,0.1153528168797493,1.376,0.988,0.0272216796875,2.479,1.1,0.1697998046875
10,1661456879.5064166,419.0,615.5,-0.1959338583991356,500.0,-196.5,-0.4996386072526931,565.3112861330452,0.0,0.1153528168797493,1.376,0.988,0.0272216796875,2.479,1.1,0.1697998046875
11,1661456879.5206642,419.0,615.5,-0.1959338583991356,500.0,-196.5,-0.4996386072526931,565.3112861330452,0.0,0.1153528168797493,1.376,0.988,0.0272216796875,2.479,1.1,0.1697998046875
12,1661456879.535012,419.0,615.5,-0.1959338583991356,500.0,-196.5,-0.4996386072526931,565.3112861330452,0.0,0.1153528168797493,1.376,0.988,0.0272216796875,2.479,1.1,0.1697998046875
13,1661456879.5565348,419.0,615.5,-0.1959338583991356,500.0,-196.5,-0.4996386072526931,565.3112861330452,0.0,0.0384509414434433,1.376,0.988,0.0272216796875,2.479,1.1,0.1697998046875
14,1661456879.58808,417.0,615.0,-0.18890616397423718,500.0,-198.0,-0.5028432109278609,562.9687213247457,0.0,0.0384509414434433,1.376,0.988,0.0272216796875,2.479,1.1,0.1697998046875
15,1661456879.6124089,417.0,615.0,-0.18890616397423718,500.0,-198.0,-0.5028432109278609,562.9687213247457,0.0,0.0384509414434433,1.376,0.988,0.0272216796875,2.479,1.1,0.1697998046875
16,1661456879.6372569,417.0,615.0,-0.18890616397423718,500.0,-198.0,-0.5028432109278609,562.9687213247457,0.0,-0.0,1.376,0.988,0.0272216796875,2.479,1.1,0.1697998046875
17,1661456879.6622827,420.5,614.5,-0.20282073901779574,500.0,-194.0,-0.49427260441591375,567.6069130059319,0.0,-0.0,1.376,0.988,0.0272216796875,2.479,1.1,0.1697998046875
18,1661456879.6868985,420.5,614.5,-0.20282073901779574,500.0,-194.0,-0.49427260441591375,567.6069130059319,0.0,-0.0,1.376,0.988,0.0272216796875,2.479,1.1,0.1697998046875
19,1661456879.7193825,421.5,611.5,-0.21010531708842348,500.0,-190.0,-0.4856220932974687,570.0351056961412,0.0,-0.0,1.376,0.988,0.0272216796875,2.479,1.1,0.1697998046875
20,1661456879.7403052,419.0,611.5,-0.20059915103237394,500.0,-192.5,-0.4910380174756687,566.866383677458,0.0,-0.0,1.376,0.988,0.0272216796875,2.479,1.1,0.1697998046875
21,1661456879.7548642,419.0,611.5,-0.20059915103237394,500.0,-192.5,-0.4910380174756687,566.866383677458,0.0,-0.0,1.376,0.988,0.0272216796875,2.479,1.1,0.1697998046875
22,1661456879.7774007,419.0,611.5,-0.20059915103237394,500.0,-192.5,-0.4910380174756687,566.866383677458,0.0,0.01922547072172165,1.376,0.988,0.0272216796875,2.479,1.1,0.1697998046875
23,1661456879.781348,419.0,611.5,-0.20059915103237394,500.0,-192.5,-0.4910380174756687,566.866383677458,0.0,0.01922547072172165,1.376,0.988,0.0272216796875,2.479,1.1,0.1697998046875
24,1661456879.7964644,419.0,611.5,-0.20059915103237394,500.0,-192.5,-0.4910380174756687,566.866383677458,0.0,0.01922547072172165,1.376,0.988,0.0272216796875,2.479,1.1,0.1697998046875
25,1661456879.8317373,419.0,613.0,-0.19885932595959516,500.0,-194.0,-0.49427260441591375,566.2864419865317,0.0,0.01922547072172165,1.376,0.988,0.0272216796875,2.479,1.1,0.1697998046875
26,1661456879.8472471,418.5,613.0,-0.19695708306066864,500.0,-194.5,-0.4953483033549891,565.6523610202229,0.0,-0.0,1.376,0.988,0.0272216796875,2.479,1.1,0.1697998046875
27,1661456879.8678088,418.0,613.0,-0.19505508849126638,500.0,-195.0,-0.49642275340488184,565.0183628304221,0.0,-0.0,1.376,0.988,0.0272216796875,2.479,1.1,0.1697998046875
28,1661456879.881917,418.0,613.0,-0.19505508849126638,500.0,-195.0,-0.49642275340488184,565.0183628304221,0.0,-0.0,1.376,0.988,0.0272216796875,2.479,1.1,0.1697998046875
29,1661456879.9127653,418.0,613.0,-0.19505508849126638,500.0,-195.0,-0.49642275340488184,565.0183628304221,0.0,-0.0,1.376,0.988,0.0272216796875,2.479,1.1,0.1697998046875
30,1661456879.939394,420.0,611.0,-0.20497723929565065,500.0,-191.0,-0.487792202616143,568.3257464318835,0.0,-0.0,1.376,0.988,0.0272216796875,2.479,1.1,0.1697998046875
31,1661456879.986068,420.0,611.0,-0.20497723929565065,500.0,-191.0,-0.487792202616143,568.3257464318835,0.0,-0.0,1.376,0.988,0.0272216796875,2.479,1.1,0.1697998046875
32,1661456879.9971466,419.0,615.0,-0.19652149200671237,500.0,-196.0,-0.498567905638218,565.5071640022375,0.0,0.1153528168797493,1.376,0.988,0.0272216796875,2.479,1.1,0.1697998046875
33,1661456880.025854,418.5,615.0,-0.1946172247508988,500.0,-196.5,-0.4996386072526931,564.8724082502996,0.0,0.1153528168797493,1.376,0.988,0.0272216796875,2.479,1.1,0.1697998046875
34,1661456880.0418463,418.5,615.0,-0.1946172247508988,500.0,-196.5,-0.4996386072526931,564.8724082502996,0.0,0.1153528168797493,1.376,0.988,0.0272216796875,2.479,1.1,0.1697998046875
35,1661456880.056866,418.5,615.0,-0.1946172247508988,500.0,-196.5,-0.4996386072526931,564.8724082502996,0.0,0.1153528168797493,1.376,0.988,0.0272216796875,2.479,1.1,0.1697998046875
36,1661456880.0988708,416.0,614.0,-0.18627751624820735,500.0,-198.0,-0.5028432109278609,562.0925054160691,0.0,0.1538037657737732,1.376,0.988,0.0272216796875,2.479,1.1,0.1697998046875
37,1661456880.1089783,416.0,614.0,-0.18627751624820735,500.0,-198.0,-0.5028432109278609,562.0925054160691,0.0,0.1538037657737732,1.376,0.988,0.0272216796875,2.479,1.1,0.1697998046875
38,1661456880.129646,416.0,614.0,-0.18627751624820735,500.0,-198.0,-0.5028432109278609,562.0925054160691,0.0,0.24993112683296204,1.376,0.988,0.0272216796875,2.479,1.1,0.1697998046875
39,1661456880.162306,415.5,610.5,-0.18846039874224063,500.0,-195.0,-0.49642275340488184,562.8201329140802,0.0,0.24993112683296204,1.376,0.988,0.0272216796875,2.479,1.1,0.1697998046875
40,1661456880.1943505,415.5,610.5,-0.18846039874224063,500.0,-195.0,-0.49642275340488184,562.8201329140802,0.0,0.24993112683296204,1.376,0.988,0.0272216796875,2.479,1.1,0.1697998046875
41,1661456880.2053173,417.0,610.0,-0.1947325091601624,500.0,-193.0,-0.49211746114270855,564.9108363867208,0.0,0.28838205337524414,1.376,0.988,0.0272216796875,2.479,1.1,0.1697998046875
42,1661456880.225632,417.0,610.0,-0.1947325091601624,500.0,-193.0,-0.49211746114270855,564.9108363867208,0.0,0.28838205337524414,1.376,0.988,0.0272216796875,2.479,1.1,0.1697998046875
43,1661456880.2455235,417.0,610.0,-0.1947325091601624,500.0,-193.0,-0.49211746114270855,564.9108363867208,0.0,0.28838205337524414,1.376,0.988,0.0272216796875,2.479,1.1,0.1697998046875
44,1661456880.2654378,417.0,610.0,-0.1947325091601624,500.0,-193.0,-0.49211746114270855,564.9108363867208,0.0,0.28838205337524414,1.376,0.988,0.0272216796875,2.479,1.1,0.1697998046875
45,1661456880.28185,416.5,609.0,-0.19398532204147376,500.0,-192.5,-0.4910380174756687,564.6617740138246,0.0,0.32683297991752625,1.376,0.988,0.0272216796875,2.479,1.1,0.1697998046875
46,1661456880.2971492,417.0,609.0,-0.19588235294117634,500.0,-192.0,-0.4899573262537283,565.2941176470588,0.0,0.32683297991752625,1.376,0.988,0.0272216796875,2.479,1.1,0.1697998046875
47,1661456880.3206246,417.0,609.0,-0.19588235294117634,500.0,-192.0,-0.4899573262537283,565.2941176470588,0.0,0.32683297991752625,1.376,0.988,0.0272216796875,2.479,1.1,0.1697998046875
48,1661456880.362772,414.5,609.5,-0.18582252284263018,500.0,-195.0,-0.49642275340488184,561.9408409475434,0.0,0.40373489260673523,1.376,0.988,0.0272216796875,2.479,1.1,0.1697998046875
49,1661456880.3777792,414.5,609.5,-0.18582252284263018,500.0,-195.0,-0.49642275340488184,561.9408409475434,0.0,0.40373489260673523,1.376,0.988,0.0272216796875,2.479,1.1,0.1697998046875
50,1661456880.3931499,414.5,609.5,-0.18582252284263018,500.0,-195.0,-0.49642275340488184,561.9408409475434,0.0,0.40373489260673523,1.376,0.988,0.0272216796875,2.479,1.1,0.1697998046875
51,1661456880.4134367,414.5,609.5,-0.18582252284263018,500.0,-195.0,-0.49642275340488184,561.9408409475434,0.0,0.40373489260673523,1.376,0.988,0.0272216796875,2.479,1.1,0.1697998046875
52,1661456880.4417531,417.0,608.0,-0.19702691150997909,500.0,-191.0,-0.487792202616143,565.675637169993,0.0,0.44218581914901733,1.376,0.988,0.0272216796875,2.479,1.1,0.1697998046875
53,1661456880.4900773,417.0,608.0,-0.19702691150997909,500.0,-191.0,-0.487792202616143,565.675637169993,0.0,0.44218581914901733,1.376,0.988,0.0272216796875,2.479,1.1,0.1697998046875
54,1661456880.506086,415.5,610.0,-0.1890388542485647,500.0,-194.5,-0.4953483033549891,563.0129514161882,0.0,0.4998622536659241,1.376,0.988,0.0272216796875,2.479,1.1,0.1697998046875
55,1661456880.5214639,415.5,610.0,-0.1890388542485647,500.0,-194.5,-0.4953483033549891,563.0129514161882,0.0,0.4998622536659241,1.376,0.988,0.0272216796875,2.479,1.1,0.1697998046875
56,1661456880.6072993,415.5,607.0,-0.19248241966860882,500.0,-191.5,-0.4888753878415063,564.1608065562029,0.0,0.32683297991752625,1.376,0.988,0.0272216796875,2.479,1.1,0.1697998046875
57,1661456880.6340399,415.5,607.0,-0.19248241966860882,500.0,-191.5,-0.4888753878415063,564.1608065562029,0.0,0.32683297991752625,1.376,0.988,0.0272216796875,2.479,1.1,0.1697998046875
58,1661456880.6549482,412.0,601.5,-0.18546033061480866,500.0,-189.5,-0.48453517002150565,561.8201102049362,0.0384509414434433,0.32683297991752625,1.376,0.988,0.0272216796875,2.479,1.1,0.1697998046875
59,1661456880.6655376,410.5,601.5,-0.17980120130769173,500.0,-191.0,-0.487792202616143,559.9337337692306,0.0384509414434433,0.32683297991752625,1.376,0.988,0.0272216796875,2.479,1.1,0.1697998046875
60,1661456880.6807694,410.5,601.5,-0.17980120130769173,500.0,-191.0,-0.487792202616143,559.9337337692306,0.0384509414434433,0.32683297991752625,1.376,0.988,0.0272216796875,2.479,1.1,0.1697998046875
61,1661456880.7008383,410.5,601.5,-0.17980120130769173,500.0,-191.0,-0.487792202616143,559.9337337692306,0.0769018828868866,0.3460584878921509,1.376,0.988,0.0272216796875,2.479,1.1,0.1697998046875
62,1661456880.7262497,410.0,594.5,-0.1856448182110422,500.0,-184.5,-0.47359752939361127,561.8816060703474,0.0769018828868866,0.3460584878921509,1.376,0.988,0.0272216796875,2.479,1.1,0.1697998046875
63,1661456880.7469435,409.5,591.0,-0.1875336719092761,500.0,-181.5,-0.4669753837383625,562.5112239697587,0.0769018828868866,0.3460584878921509,1.376,0.988,0.0272216796875,2.479,1.1,0.1697998046875
64,1661456880.7565958,409.5,591.0,-0.1875336719092761,500.0,-181.5,-0.4669753837383625,562.5112239697587,0.0769018828868866,0.3460584878921509,1.376,0.988,0.0272216796875,2.479,1.1,0.1697998046875
65,1661456880.772258,409.5,591.0,-0.1875336719092761,500.0,-181.5,-0.4669753837383625,562.5112239697587,0.0769018828868866,0.4229603409767151,1.376,0.988,0.0272216796875,2.479,1.1,0.1697998046875
66,1661456880.7819276,406.5,586.5,-0.18107590548434188,500.0,-180.0,-0.4636476090008061,560.3586351614473,0.1153528168797493,0.4229603409767151,1.376,0.988,0.0272216796875,2.479,1.1,0.1697998046875
67,1661456880.8617344,405.0,584.0,-0.1780914895930572,500.0,-179.0,-0.46142291856643397,559.3638298643524,0.1153528168797493,0.4229603409767151,1.376,0.988,0.0272216796875,2.479,1.1,0.1697998046875
68,1661456880.865758,405.0,584.0,-0.1780914895930572,500.0,-179.0,-0.46142291856643397,559.3638298643524,0.1153528168797493,0.4229603409767151,1.376,0.988,0.0272216796875,2.479,1.1,0.1697998046875
69,1661456880.8816788,404.5,573.5,-0.1867968263057411,500.0,-169.0,-0.43890575225468875,562.2656087685804,0.1922547072172165,0.5959895849227905,1.376,0.988,0.0272216796875,2.479,1.1,0.1697998046875
70,1661456880.9123952,404.5,572.5,-0.18776609824118204,500.0,-168.0,-0.43662715981354133,562.5886994137273,0.1922547072172165,0.5959895849227905,1.376,0.988,0.0272216796875,2.479,1.1,0.1697998046875
71,1661456880.9430277,404.5,572.5,-0.18776609824118204,500.0,-168.0,-0.43662715981354133,562.5886994137273,0.17302924394607544,0.5959895849227905,1.376,0.988,0.0272216796875,2.479,1.1,0.1697998046875
72,1661456880.9674947,397.0,565.5,-0.1669040375728166,500.0,-168.5,-0.4377670635678613,555.6346791909389,0.17302924394607544,0.4998622536659241,1.376,0.988,0.0272216796875,2.479,1.1,0.1697998046875
73,1661456880.9995794,397.0,565.5,-0.1669040375728166,500.0,-168.5,-0.4377670635678613,555.6346791909389,0.17302924394607544,0.4998622536659241,1.376,0.988,0.0272216796875,2.479,1.1,0.1697998046875
74,1661456881.0252364,395.5,562.5,-0.16423569184140616,500.0,-167.0,-0.43434371120198656,554.745230613802,0.1922547072172165,0.557538628578186,1.376,0.988,0.0272216796875,2.479,1.1,0.1697998046875
75,1661456881.0720117,395.5,558.0,-0.16836607211574403,500.0,-162.5,-0.4240083267745411,556.1220240385813,0.1922547072172165,0.557538628578186,1.376,0.988,0.0272216796875,2.479,1.1,0.1697998046875
76,1661456881.09142,395.5,558.0,-0.16836607211574403,500.0,-162.5,-0.4240083267745411,556.1220240385813,0.1922547072172165,0.557538628578186,1.376,0.988,0.0272216796875,2.479,1.1,0.1697998046875
77,1661456881.1224866,395.5,558.0,-0.16836607211574403,500.0,-162.5,-0.4240083267745411,556.1220240385813,0.1922547072172165,0.557538628578186,1.376,0.988,0.0272216796875,2.479,1.1,0.1697998046875
78,1661456881.1692321,395.5,558.0,-0.16836607211574403,500.0,-162.5,-0.4240083267745411,556.1220240385813,0.1922547072172165,0.6152150630950928,1.376,0.988,0.0272216796875,2.479,1.1,0.1697998046875
79,1661456881.1958337,392.5,545.0,-0.1687412203508418,500.0,-152.5,-0.4006936581354902,556.2470734502806,0.1922547072172165,0.6152150630950928,1.376,0.988,0.0272216796875,2.479,1.1,0.1697998046875
80,1661456881.2105646,392.5,545.0,-0.1687412203508418,500.0,-152.5,-0.4006936581354902,556.2470734502806,0.1922547072172165,0.6152150630950928,1.376,0.988,0.0272216796875,2.479,1.1,0.1697998046875
81,1661456881.2428098,392.5,545.0,-0.1687412203508418,500.0,-152.5,-0.4006936581354902,556.2470734502806,0.1922547072172165,0.6536659598350525,1.376,0.988,0.0272216796875,2.479,1.1,0.1697998046875
82,1661456881.252494,388.5,534.0,-0.16317079684983002,500.0,-145.5,-0.38409316230480983,554.39026561661,0.1922547072172165,0.6536659598350525,1.376,0.988,0.0272216796875,2.479,1.1,0.1697998046875
83,1661456881.2781677,384.0,519.5,-0.15767588408079825,500.0,-135.5,-0.3599877699282296,552.5586280269328,0.1922547072172165,0.6536659598350525,1.376,0.988,0.0272216796875,2.479,1.1,0.1697998046875
84,1661456881.2944176,384.0,519.5,-0.15767588408079825,500.0,-135.5,-0.3599877699282296,552.5586280269328,0.1922547072172165,0.6344404816627502,1.376,0.988,0.0272216796875,2.479,1.1,0.1697998046875
85,1661456881.2992563,384.0,507.5,-0.16496056174699003,500.0,-123.5,-0.3304748864280135,554.9868539156633,0.1922547072172165,0.6344404816627502,1.376,0.988,0.0272216796875,2.479,1.1,0.1697998046875
86,1661456881.3299546,379.5,507.5,0.0,500.0,-128.0,-0.3416154906478072,549.8869622990206,0.21148017048835754,0.6344404816627502,1.376,0.988,0.0272216796875,2.479,1.1,0.1697998046875
87,1661456881.3563266,379.5,507.5,0.0,500.0,-128.0,-0.3416154906478072,549.8869622990206,0.21148017048835754,0.6344404816627502,1.376,0.988,0.0272216796875,2.479,1.1,0.1697998046875
88,1661456881.3595424,379.5,507.5,0.0,500.0,-128.0,-0.3416154906478072,549.8869622990206,0.21148017048835754,0.6344404816627502,1.376,0.988,0.0272216796875,2.479,1.1,0.1697998046875
89,1661456881.3694003,379.5,503.5,-0.15191911900740218,500.0,-124.0,-0.3317170018028493,550.6397063358007,0.2307056337594986,0.711342453956604,1.376,0.988,0.0272216796875,2.479,1.1,0.1697998046875
90,1661456881.383431,379.5,502.5,-0.15246069856471206,500.0,-123.0,-0.32923171158386993,550.820232854904,0.2307056337594986,0.711342453956604,1.376,0.988,0.0272216796875,2.479,1.1,0.1697998046875
91,1661456881.4036708,379.5,502.5,-0.15246069856471206,500.0,-123.0,-0.32923171158386993,550.820232854904,0.2307056337594986,0.711342453956604,1.376,0.988,0.0272216796875,2.479,1.1,0.1697998046875
92,1661456881.456041,375.5,502.5,0.0,500.0,-127.0,-0.33914730785814784,546.3075490844275,0.2307056337594986,0.7497933506965637,1.376,0.988,0.0272216796875,2.479,1.1,0.1697998046875
93,1661456881.476483,375.5,497.0,0.0,500.0,-121.5,-0.325495855236478,547.2952276499809,0.24993112683296204,0.7497933506965637,1.376,0.988,0.0272216796875,2.479,1.1,0.1697998046875
94,1661456881.496243,373.5,497.0,0.0,500.0,-123.5,-0.3304748864280135,545.0550262068163,0.24993112683296204,0.7497933506965637,1.376,0.988,0.0272216796875,2.479,1.1,0.1697998046875
95,1661456881.5384495,371.0,484.5,0.0,500.0,-113.5,-0.3054135077899947,544.2709988298558,0.28838205337524414,0.8074697852134705,1.376,0.988,0.0272216796875,2.479,1.1,0.1697998046875
96,1661456881.5968714,371.5,474.0,0.0,500.0,-102.5,-0.27738222806984514,546.1148758674794,0.3076075315475464,0.8266952037811279,1.376,0.988,0.0272216796875,2.479,1.1,0.1697998046875
97,1661456881.601443,371.5,474.0,0.0,500.0,-102.5,-0.27738222806984514,546.1148758674794,0.3076075315475464,0.8266952037811279,1.376,0.988,0.0272216796875,2.479,1.1,0.1697998046875
98,1661456881.6153705,371.5,474.0,0.0,500.0,-102.5,-0.27738222806984514,546.1148758674794,0.3076075315475464,0.8266952037811279,1.376,0.988,0.0272216796875,2.479,1.1,0.1697998046875
99,1661456881.6362865,371.5,474.0,0.0,500.0,-102.5,-0.27738222806984514,546.1148758674794,0.3076075315475464,0.8266952037811279,1.376,0.988,0.0272216796875,2.479,1.1,0.1697998046875
100,1661456881.6513405,370.5,474.0,0.0,500.0,-103.5,-0.27994982252379114,545.0464289912352,0.28838205337524414,0.9035971760749817,1.376,0.988,0.0272216796875,2.479,1.1,0.1697998046875
101,1661456881.6605766,369.5,458.5,0.0,500.0,-89.0,-0.2423625801479178,545.2781789199441,0.28838205337524414,0.9035971760749817,1.376,0.988,0.0272216796875,2.479,1.1,0.1697998046875
102,1661456881.6905818,369.5,458.5,0.0,500.0,-89.0,-0.2423625801479178,545.2781789199441,0.28838205337524414,0.9035971760749817,1.376,0.988,0.0272216796875,2.479,1.1,0.1697998046875
103,1661456881.7167757,369.0,453.5,0.0,500.0,-84.5,-0.23054870379278133,545.0072692670847,0.28838205337524414,0.9612735509872437,1.376,0.988,0.0272216796875,2.479,1.1,0.1697998046875
104,1661456881.7262506,369.0,453.5,0.0,500.0,-84.5,-0.23054870379278133,545.0072692670847,0.28838205337524414,0.9612735509872437,1.376,0.988,0.0272216796875,2.479,1.1,0.1697998046875
105,1661456881.7350564,369.0,453.5,0.0,500.0,-84.5,-0.23054870379278133,545.0072692670847,0.28838205337524414,0.9612735509872437,1.376,0.988,0.0272216796875,2.479,1.1,0.1697998046875
106,1661456881.7619236,363.0,443.0,0.0,500.0,-80.0,-0.21866894587394195,539.2891181371792,0.28838205337524414,0.9612735509872437,1.376,0.988,0.0272216796875,2.479,1.1,0.1697998046875
