,time[s],front[mm],rear[mm],PID Align setpoint,PID Distance setpoint,error[mm],angle[rad],distance[mm],rw_speed[rad/s],lw_speeed[rad/s],pozyx_x_1,pozyx_y_1,pozyx_rot_y_1,pozyx_x_2,pozyx_y_2,pozyx_rot_2
0,1661452762.6292455,483.5,530.5,-0.3,500.0,-47.0,-0.12982128789754604,657.2831647366476,0.0,-0.0,1.275,0.669,0.06781005859375,2.479,1.1,0.1697998046875
1,1661452762.6603255,484.0,529.5,-0.3,500.0,-45.5,-0.1257222813378634,657.6707236005608,0.0,-0.0,1.275,0.669,0.06781005859375,2.479,1.1,0.1697998046875
2,1661452762.6733499,484.0,529.5,-0.3,500.0,-45.5,-0.1257222813378634,657.6707236005608,0.0,-0.0,1.275,0.669,0.06781005859375,2.479,1.1,0.1697998046875
3,1661452762.7119596,484.0,529.5,-0.3,500.0,-45.5,-0.1257222813378634,657.6707236005608,0.0,-0.0,1.275,0.668,0.06781005859375,2.479,1.1,0.1697998046875
4,1661452762.7261665,484.0,529.5,-0.3,500.0,-45.5,-0.1257222813378634,657.6707236005608,0.0,-0.0,1.275,0.668,0.06781005859375,2.479,1.1,0.1697998046875
5,1661452762.745792,483.5,530.5,-0.3,500.0,-47.0,-0.12982128789754604,657.2831647366476,0.0,-0.0,1.275,0.668,0.06781005859375,2.479,1.1,0.1697998046875
6,1661452762.77608,483.5,530.5,-0.3,500.0,-47.0,-0.12982128789754604,657.2831647366476,0.0,-0.0,1.275,0.668,0.06781005859375,2.479,1.1,0.1697998046875
7,1661452762.8009603,483.5,530.5,-0.3,500.0,-47.0,-0.12982128789754604,657.2831647366476,0.0384509414434433,0.01922547072172165,1.275,0.668,0.06781005859375,2.479,1.1,0.1697998046875
8,1661452762.8135839,485.5,530.0,-0.3,500.0,-44.5,-0.12298724022784749,659.0810286381767,0.0384509414434433,0.01922547072172165,1.275,0.668,0.06781005859375,2.479,1.1,0.1697998046875
9,1661452762.8273559,485.5,530.0,-0.3,500.0,-44.5,-0.12298724022784749,659.0810286381767,0.0384509414434433,0.01922547072172165,1.275,0.668,0.06781005859375,2.479,1.1,0.1697998046875
10,1661452762.857742,485.5,530.0,-0.3,500.0,-44.5,-0.12298724022784749,659.0810286381767,0.0384509414434433,0.01922547072172165,1.275,0.668,0.06781005859375,2.479,1.1,0.1697998046875
11,1661452762.8930857,485.5,530.0,-0.3,500.0,-44.5,-0.12298724022784749,659.0810286381767,0.1538037657737732,-0.0,1.275,0.668,0.06781005859375,2.479,1.1,0.1697998046875
12,1661452762.9181852,487.0,530.0,-0.3,500.0,-43.0,-0.11888122095753968,660.4443026949115,0.1538037657737732,-0.0,1.275,0.668,0.06787109375,2.479,1.1,0.1697998046875
13,1661452762.93753,487.0,530.0,-0.3,500.0,-43.0,-0.11888122095753968,660.4443026949115,0.1538037657737732,-0.0,1.275,0.668,0.0677490234375,2.479,1.1,0.1697998046875
14,1661452762.964503,482.0,532.0,-0.3,500.0,-50.0,-0.13800602365751943,655.9810215862209,0.13457830250263214,-0.0,1.275,0.668,0.0672607421875,2.479,1.1,0.1697998046875
15,1661452762.9834418,482.0,532.0,-0.3,500.0,-50.0,-0.13800602365751943,655.9810215862209,0.13457830250263214,-0.0,1.275,0.668,0.0670166015625,2.479,1.1,0.1697998046875
16,1661452762.9978826,482.0,532.0,-0.3,500.0,-50.0,-0.13800602365751943,655.9810215862209,0.13457830250263214,-0.0,1.275,0.668,0.0670166015625,2.479,1.1,0.1697998046875
17,1661452763.038205,481.5,532.0,-0.3,500.0,-50.5,-0.13936836907769645,655.5124361310957,0.05767640843987465,-0.0,1.275,0.668,0.06695556640625,2.479,1.1,0.1697998046875
18,1661452763.0576684,485.0,531.0,-0.3,500.0,-46.0,-0.1270890957312563,658.699977270749,0.05767640843987465,-0.0,1.275,0.669,0.06695556640625,2.479,1.1,0.1697998046875
19,1661452763.0701196,485.0,531.0,-0.3,500.0,-46.0,-0.1270890957312563,658.699977270749,0.05767640843987465,-0.0,1.276,0.669,0.06695556640625,2.479,1.1,0.1697998046875
20,1661452763.09013,485.0,531.0,-0.3,500.0,-46.0,-0.1270890957312563,658.699977270749,0.05767640843987465,-0.0,1.276,0.669,0.06695556640625,2.479,1.1,0.1697998046875
21,1661452763.0937285,484.0,531.0,-0.3,500.0,-47.0,-0.12982128789754604,657.7789572591828,0.01922547072172165,-0.0,1.276,0.669,0.06695556640625,2.479,1.1,0.1697998046875
22,1661452763.1177278,483.0,531.0,-0.3,500.0,-48.0,-0.13255153229667402,656.8536888523593,0.01922547072172165,-0.0,1.276,0.67,0.06695556640625,2.479,1.1,0.1697998046875
23,1661452763.1526651,483.0,530.5,-0.3,500.0,-47.5,-0.13118665598315607,656.8211485179557,0.01922547072172165,-0.0,1.274,0.669,0.06695556640625,2.479,1.1,0.1697998046875
24,1661452763.1641474,483.0,530.5,-0.3,500.0,-47.5,-0.13118665598315607,656.8211485179557,0.01922547072172165,-0.0,1.274,0.669,0.06695556640625,2.479,1.1,0.1697998046875
25,1661452763.1995757,485.0,534.0,-0.3,500.0,-49.0,-0.13527979035106133,658.896793517538,0.0,-0.0,1.272,0.669,0.06695556640625,2.479,1.1,0.1697998046875
26,1661452763.246816,485.0,534.0,-0.3,500.0,-49.0,-0.13527979035106133,658.896793517538,0.01922547072172165,-0.0,1.27,0.67,0.06695556640625,2.479,1.1,0.1697998046875
27,1661452763.2926023,485.0,530.0,-0.3,500.0,-45.0,-0.12435499454676144,658.6244406686968,0.01922547072172165,-0.0,1.268,0.671,0.06695556640625,2.479,1.1,0.1697998046875
28,1661452763.315868,483.0,531.5,-0.3,500.0,-48.5,-0.13391591202128186,656.884994370964,0.0384509414434433,-0.0,1.268,0.671,0.06695556640625,2.479,1.1,0.1697998046875
29,1661452763.3335767,483.0,531.5,-0.3,500.0,-48.5,-0.13391591202128186,656.884994370964,0.0384509414434433,-0.0,1.268,0.671,0.06689453125,2.479,1.1,0.1697998046875
30,1661452763.3407342,483.0,531.5,-0.3,500.0,-48.5,-0.13391591202128186,656.884994370964,0.0384509414434433,-0.0,1.268,0.671,0.06689453125,2.479,1.1,0.1697998046875
31,1661452763.354356,483.0,531.5,-0.3,500.0,-48.5,-0.13391591202128186,656.884994370964,0.0384509414434433,-0.0,1.267,0.671,0.0667724609375,2.479,1.1,0.1697998046875
32,1661452763.374142,483.0,531.5,-0.3,500.0,-48.5,-0.13391591202128186,656.884994370964,0.0384509414434433,-0.0,1.267,0.671,0.0667724609375,2.479,1.1,0.1697998046875
33,1661452763.3891256,484.5,530.5,-0.3,500.0,-46.0,-0.1270890957312563,658.2040097483331,0.05767640843987465,-0.0,1.267,0.671,0.0667724609375,2.479,1.1,0.1697998046875
34,1661452763.440996,485.5,530.5,-0.3,500.0,-45.0,-0.12435499454676144,659.1205796070537,0.05767640843987465,-0.0,1.269,0.671,0.06671142578125,2.479,1.1,0.1697998046875
35,1661452763.4680195,484.0,529.5,-0.3,500.0,-45.5,-0.1257222813378634,657.6707236005608,0.1153528168797493,-0.0,1.27,0.671,0.06671142578125,2.479,1.1,0.1697998046875
36,1661452763.4851391,484.0,529.5,-0.3,500.0,-45.5,-0.1257222813378634,657.6707236005608,0.1153528168797493,-0.0,1.27,0.671,0.06671142578125,2.479,1.1,0.1697998046875
37,1661452763.5226977,484.0,531.5,-0.3,500.0,-47.5,-0.13118665598315607,657.8125558824406,0.1153528168797493,-0.0,1.272,0.671,0.0667724609375,2.479,1.1,0.1697998046875
38,1661452763.5253687,483.0,530.0,-0.3,500.0,-47.0,-0.12982128789754604,656.7873722141122,0.1538037657737732,-0.0,1.272,0.671,0.0667724609375,2.479,1.1,0.1697998046875
39,1661452763.53797,483.0,530.0,-0.3,500.0,-47.0,-0.12982128789754604,656.7873722141122,0.1538037657737732,-0.0,1.272,0.671,0.0667724609375,2.479,1.1,0.1697998046875
40,1661452763.5740151,483.0,530.0,-0.3,500.0,-47.0,-0.12982128789754604,656.7873722141122,0.1538037657737732,-0.0,1.273,0.671,0.0667724609375,2.479,1.1,0.1697998046875
41,1661452763.5774415,483.0,530.0,-0.3,500.0,-47.0,-0.12982128789754604,656.7873722141122,0.1538037657737732,-0.0,1.273,0.671,0.0667724609375,2.479,1.1,0.1697998046875
42,1661452763.5862787,483.0,530.0,-0.3,500.0,-47.0,-0.12982128789754604,656.7873722141122,0.1538037657737732,-0.0,1.273,0.671,0.0667724609375,2.479,1.1,0.1697998046875
43,1661452763.5962772,483.0,531.0,-0.3,500.0,-48.0,-0.13255153229667402,656.8536888523593,0.1538037657737732,-0.0,1.273,0.671,0.0667724609375,2.479,1.1,0.1697998046875
44,1661452763.6216269,484.0,532.0,-0.3,500.0,-48.0,-0.13255153229667402,657.8449167530418,0.24993112683296204,-0.0,1.274,0.671,0.0667724609375,2.479,1.1,0.1697998046875
45,1661452763.6409507,483.5,532.0,-0.3,500.0,-48.5,-0.13391591202128186,657.3805176992828,0.24993112683296204,-0.0,1.274,0.671,0.0667724609375,2.479,1.1,0.1697998046875
46,1661452763.6558528,483.5,532.0,-0.3,500.0,-48.5,-0.13391591202128186,657.3805176992828,0.24993112683296204,-0.0,1.274,0.671,0.0667724609375,2.479,1.1,0.1697998046875
47,1661452763.6639917,483.5,532.0,-0.3,500.0,-48.5,-0.13391591202128186,657.3805176992828,0.24993112683296204,-0.0,1.274,0.671,0.0667724609375,2.479,1.1,0.1697998046875
48,1661452763.6785502,484.0,532.0,-0.3,500.0,-48.0,-0.13255153229667402,657.8449167530418,0.32683297991752625,-0.0,1.273,0.671,0.0667724609375,2.479,1.1,0.1697998046875
49,1661452763.6988702,484.0,532.0,-0.3,500.0,-48.0,-0.13255153229667402,657.8449167530418,0.32683297991752625,-0.0,1.273,0.671,0.0667724609375,2.479,1.1,0.1697998046875
50,1661452763.7230783,484.0,532.0,-0.3,500.0,-48.0,-0.13255153229667402,657.8449167530418,0.32683297991752625,-0.0,1.273,0.67,0.0667724609375,2.479,1.1,0.1697998046875
51,1661452763.725774,484.0,534.0,-0.3,500.0,-50.0,-0.13800602365751943,657.9620061325763,0.32683297991752625,-0.0,1.273,0.67,0.0667724609375,2.479,1.1,0.1697998046875
52,1661452763.7555625,482.0,533.5,-0.3,500.0,-51.5,-0.14209149364507348,656.0570414167407,0.40373489260673523,-0.0,1.272,0.67,0.06683349609375,2.479,1.1,0.1697998046875
53,1661452763.7908933,482.0,533.5,-0.3,500.0,-51.5,-0.14209149364507348,656.0570414167407,0.40373489260673523,-0.0,1.272,0.669,0.06683349609375,2.479,1.1,0.1697998046875
54,1661452763.7944496,482.0,533.5,-0.3,500.0,-51.5,-0.14209149364507348,656.0570414167407,0.40373489260673523,-0.0,1.272,0.669,0.06683349609375,2.479,1.1,0.1697998046875
55,1661452763.8084085,484.5,534.0,-0.3,500.0,-49.5,-0.13664316249108707,658.4299239321797,0.40373489260673523,-0.0,1.272,0.669,0.06683349609375,2.479,1.1,0.1697998046875
56,1661452763.827558,484.5,531.5,-0.3,500.0,-47.0,-0.12982128789754604,658.2747497817181,0.4614112675189972,-0.0,1.272,0.668,0.06683349609375,2.479,1.1,0.1697998046875
57,1661452763.8304024,484.5,531.5,-0.3,500.0,-47.0,-0.12982128789754604,658.2747497817181,0.4614112675189972,-0.0,1.272,0.668,0.06683349609375,2.479,1.1,0.1697998046875
58,1661452763.8466651,484.5,531.5,-0.3,500.0,-47.0,-0.12982128789754604,658.2747497817181,0.4614112675189972,-0.0,1.272,0.668,0.06683349609375,2.479,1.1,0.1697998046875
59,1661452763.865835,484.5,531.5,-0.3,500.0,-47.0,-0.12982128789754604,658.2747497817181,0.4614112675189972,-0.0,1.271,0.668,0.06683349609375,2.479,1.1,0.1697998046875
60,1661452763.8889987,485.0,534.5,-0.3,500.0,-49.5,-0.13664316249108707,658.9252633521023,0.4614112675189972,-0.0,1.271,0.667,0.06689453125,2.479,1.1,0.1697998046875
61,1661452763.9174066,485.0,532.5,-0.3,500.0,-47.5,-0.13118665598315607,658.8039632469255,0.4614112675189972,-0.0,1.272,0.667,0.0665283203125,2.479,1.1,0.1697998046875
62,1661452763.9311056,485.0,532.5,-0.3,500.0,-47.5,-0.13118665598315607,658.8039632469255,0.4614112675189972,-0.0,1.272,0.667,0.0665283203125,2.479,1.1,0.1697998046875
63,1661452763.9460251,485.0,532.5,-0.3,500.0,-47.5,-0.13118665598315607,658.8039632469255,0.4614112675189972,-0.0,1.272,0.666,0.06488037109375,2.479,1.1,0.1697998046875
64,1661452763.9670248,486.0,534.0,-0.3,500.0,-48.0,-0.13255153229667402,659.8273725544071,0.28838205337524414,0.01922547072172165,1.272,0.666,0.06317138671875,2.479,1.1,0.1697998046875
65,1661452764.0083506,486.0,532.5,-0.3,500.0,-46.5,-0.12845543286746772,659.7276416251617,0.28838205337524414,0.01922547072172165,1.272,0.666,0.0623779296875,2.479,1.1,0.1697998046875
66,1661452764.044914,484.0,536.0,-0.3,500.0,-52.0,-0.14345226330365873,658.0593874838021,0.2307056337594986,-0.0,1.272,0.666,0.061767578125,2.479,1.1,0.1697998046875
67,1661452764.0966527,484.0,536.0,-0.3,500.0,-52.0,-0.14345226330365873,658.0593874838021,0.2307056337594986,-0.0,1.272,0.666,0.0587158203125,2.479,1.1,0.1697998046875
68,1661452764.1322153,482.5,538.0,-0.3,500.0,-55.5,-0.15296241542323183,656.7001457921959,0.24993112683296204,-0.0,1.274,0.667,0.05767822265625,2.479,1.1,0.1697998046875
69,1661452764.1419697,482.5,538.0,-0.3,500.0,-55.5,-0.15296241542323183,656.7001457921959,0.24993112683296204,-0.0,1.276,0.667,0.05670166015625,2.479,1.1,0.1697998046875
70,1661452764.15631,482.5,538.0,-0.3,500.0,-55.5,-0.15296241542323183,656.7001457921959,0.24993112683296204,-0.0,1.276,0.667,0.05670166015625,2.479,1.1,0.1697998046875
71,1661452764.165102,482.5,538.0,-0.3,500.0,-55.5,-0.15296241542323183,656.7001457921959,0.2691566050052643,0.01922547072172165,1.276,0.667,0.05670166015625,2.479,1.1,0.1697998046875
72,1661452764.1812344,482.5,538.0,-0.3,500.0,-55.5,-0.15296241542323183,656.7001457921959,0.2691566050052643,0.01922547072172165,1.279,0.667,0.0552978515625,2.479,1.1,0.1697998046875
73,1661452764.191458,482.0,544.5,-0.3,500.0,-62.5,-0.17189773129569183,656.2802345542342,0.2691566050052643,0.01922547072172165,1.279,0.667,0.0552978515625,2.479,1.1,0.1697998046875
74,1661452764.2274504,484.0,544.5,-0.3,500.0,-60.5,-0.16649972365406565,658.255387623332,0.2691566050052643,0.01922547072172165,1.289,0.67,0.05255126953125,2.479,1.1,0.1697998046875
75,1661452764.2533712,482.0,544.5,-0.3,500.0,-62.5,-0.17189773129569183,656.2802345542342,0.28838205337524414,-0.0,1.297,0.673,0.05096435546875,2.479,1.1,0.1697998046875
76,1661452764.2681284,482.5,544.5,-0.3,500.0,-62.0,-0.17054916496580147,656.7754746943183,0.28838205337524414,-0.0,1.297,0.673,0.05096435546875,2.479,1.1,0.1697998046875
77,1661452764.2981575,482.5,544.5,-0.3,500.0,-62.0,-0.17054916496580147,656.7754746943183,0.28838205337524414,-0.0,1.318,0.678,0.04840087890625,2.479,1.1,0.1697998046875
78,1661452764.3070967,482.5,544.5,-0.3,500.0,-62.0,-0.17054916496580147,656.7754746943183,0.28838205337524414,-0.0,1.318,0.678,0.04840087890625,2.479,1.1,0.1697998046875
79,1661452764.3101523,482.5,544.5,-0.3,500.0,-62.0,-0.17054916496580147,656.7754746943183,0.28838205337524414,-0.0,1.318,0.678,0.04840087890625,2.479,1.1,0.1697998046875
80,1661452764.335988,481.5,550.0,-0.3,500.0,-68.5,-0.18803003224098866,655.6666750991263,0.32683297991752625,-0.0,1.329,0.68,0.046630859375,2.479,1.1,0.1697998046875
81,1661452764.3802783,481.5,550.0,-0.3,500.0,-68.5,-0.18803003224098866,655.6666750991263,0.32683297991752625,-0.0,1.329,0.68,0.046630859375,2.479,1.1,0.1697998046875
82,1661452764.401609,481.5,550.5,-0.3,500.0,-69.0,-0.18937004997584464,655.6489540456245,0.32683297991752625,-0.0,1.346,0.681,0.0435791015625,2.479,1.1,0.1697998046875
83,1661452764.4161067,483.0,552.5,-0.3,500.0,-69.5,-0.19070937973295507,657.1028707055966,0.32683297991752625,-0.0,1.353,0.679,0.0416259765625,2.479,1.1,0.1697998046875
84,1661452764.4506907,483.0,552.5,-0.3,500.0,-69.5,-0.19070937973295507,657.1028707055966,0.384509414434433,0.01922547072172165,1.359,0.674,0.03973388671875,2.479,1.1,0.1697998046875
85,1661452764.487082,483.0,557.0,-0.3,500.0,-74.0,-0.20273168849747414,656.8771424894842,0.384509414434433,0.01922547072172165,1.364,0.668,0.03790283203125,2.479,1.1,0.1697998046875
86,1661452764.5075102,481.0,557.0,-0.3,500.0,-76.0,-0.2080561367910258,654.7899659731063,0.384509414434433,0.01922547072172165,1.368,0.66,0.0361328125,2.479,1.1,0.1697998046875
87,1661452764.5329375,481.0,557.0,-0.3,500.0,-76.0,-0.2080561367910258,654.7899659731063,0.40373489260673523,0.09612735360860825,1.37,0.651,0.03497314453125,2.479,1.1,0.1697998046875
88,1661452764.5739834,481.0,565.0,-0.3,500.0,-84.0,-0.22923193327699531,654.0966792099044,0.40373489260673523,0.09612735360860825,1.37,0.64,0.0333251953125,2.479,1.1,0.1697998046875
89,1661452764.5789058,481.0,565.0,-0.3,500.0,-84.0,-0.22923193327699531,654.0966792099044,0.40373489260673523,0.09612735360860825,1.371,0.63,0.03155517578125,2.479,1.1,0.1697998046875
90,1661452764.6078906,477.5,565.0,-0.3,500.0,-87.5,-0.2384321118065295,650.3030681269169,0.40373489260673523,0.1153528168797493,1.371,0.63,0.03155517578125,2.479,1.1,0.1697998046875
91,1661452764.6550694,477.5,569.0,-0.3,500.0,-91.5,-0.24889637080110621,649.7980751947246,0.40373489260673523,0.1153528168797493,1.374,0.611,0.02813720703125,2.479,1.1,0.1697998046875
92,1661452764.7018592,484.5,572.5,-0.3,500.0,-88.0,-0.2397431088704566,657.0434946721259,0.4614112675189972,0.1538037657737732,1.382,0.601,0.02587890625,2.479,1.1,0.1697998046875
93,1661452764.726703,484.5,572.5,-0.3,500.0,-88.0,-0.2397431088704566,657.0434946721259,0.4614112675189972,0.1538037657737732,1.386,0.599,0.0235595703125,2.479,1.1,0.1697998046875
94,1661452764.7466888,479.0,577.5,-0.3,500.0,-98.5,-0.2670745140107092,650.198514162796,0.4614112675189972,0.1538037657737732,1.386,0.599,0.0235595703125,2.479,1.1,0.1697998046875
95,1661452764.7496996,479.0,577.5,-0.3,500.0,-98.5,-0.2670745140107092,650.198514162796,0.4614112675189972,0.1538037657737732,1.386,0.599,0.0235595703125,2.479,1.1,0.1697998046875
96,1661452764.7632072,479.0,577.5,-0.3,500.0,-98.5,-0.2670745140107092,650.198514162796,0.4614112675189972,0.1538037657737732,1.386,0.592,0.02166748046875,2.479,1.1,0.1697998046875
97,1661452764.7771015,479.0,577.5,-0.3,500.0,-98.5,-0.2670745140107092,650.198514162796,0.4614112675189972,0.1538037657737732,1.386,0.592,0.02166748046875,2.479,1.1,0.1697998046875
98,1661452764.7907035,479.0,577.5,-0.3,500.0,-98.5,-0.2670745140107092,650.198514162796,0.4614112675189972,0.1538037657737732,1.378,0.575,0.02008056640625,2.479,1.1,0.1697998046875
99,1661452764.8297465,480.5,580.0,-0.3,500.0,-99.5,-0.2696569907886124,651.4772269233074,0.5383132100105286,0.1922547072172165,1.368,0.558,0.01727294921875,2.479,1.1,0.1697998046875
100,1661452764.8373935,480.5,580.0,-0.3,500.0,-99.5,-0.2696569907886124,651.4772269233074,0.5383132100105286,0.1922547072172165,1.354,0.537,0.01580810546875,2.479,1.1,0.1697998046875
101,1661452764.8722517,480.5,580.0,-0.3,500.0,-99.5,-0.2696569907886124,651.4772269233074,0.5383132100105286,0.1922547072172165,1.341,0.518,0.013671875,2.479,1.1,0.1697998046875
102,1661452764.898358,481.0,581.5,-0.3,500.0,-100.5,-0.27223578625190886,651.7866092175337,0.557538628578186,0.1922547072172165,1.341,0.518,0.013671875,2.479,1.1,0.1697998046875
103,1661452764.9073105,481.5,581.5,-0.3,500.0,-100.0,-0.27094685033842053,652.355153592227,0.557538628578186,0.24993112683296204,1.33,0.501,0.01239013671875,2.479,1.1,0.1697998046875
104,1661452764.9163072,481.5,581.5,-0.3,500.0,-100.0,-0.27094685033842053,652.355153592227,0.557538628578186,0.24993112683296204,1.33,0.501,0.01239013671875,2.479,1.1,0.1697998046875
105,1661452764.9416711,481.5,581.5,-0.3,500.0,-100.0,-0.27094685033842053,652.355153592227,0.557538628578186,0.24993112683296204,1.319,0.484,0.0098876953125,2.479,1.1,0.1697998046875
106,1661452764.9573684,479.5,586.5,-0.3,500.0,-107.0,-0.28890643020375395,649.1288054649943,0.557538628578186,0.2691566050052643,1.31,0.467,0.00762939453125,2.479,1.1,0.1697998046875
107,1661452764.9668033,479.5,591.0,-0.3,500.0,-111.5,-0.3003522263820128,648.1914781696863,0.557538628578186,0.2691566050052643,1.31,0.467,0.00762939453125,2.479,1.1,0.1697998046875
108,1661452765.012899,479.5,591.0,-0.3,500.0,-111.5,-0.3003522263820128,648.1914781696863,0.557538628578186,0.2691566050052643,1.294,0.436,0.003173828125,2.479,1.1,0.1697998046875
109,1661452765.032015,480.0,601.0,-0.3,500.0,-121.0,-0.3242484676026597,646.4349427469683,0.557538628578186,0.32683297991752625,1.294,0.436,0.003173828125,2.479,1.1,0.1697998046875
110,1661452765.0561883,480.0,601.0,-0.3,500.0,-121.0,-0.3242484676026597,646.4349427469683,0.557538628578186,0.32683297991752625,1.291,0.427,0.00189208984375,2.479,1.1,0.1697998046875
111,1661452765.0705256,480.0,601.0,-0.3,500.0,-121.0,-0.3242484676026597,646.4349427469683,0.557538628578186,0.32683297991752625,1.296,0.428,-6.103515625e-05,2.479,1.1,0.1697998046875
112,1661452765.0800636,480.0,601.0,-0.3,500.0,-121.0,-0.3242484676026597,646.4349427469683,0.557538628578186,0.32683297991752625,1.296,0.428,-6.103515625e-05,2.479,1.1,0.1697998046875
113,1661452765.0896077,480.0,601.0,-0.3,500.0,-121.0,-0.3242484676026597,646.4349427469683,0.557538628578186,0.32683297991752625,1.302,0.43,-0.0015869140625,2.479,1.1,0.1697998046875
114,1661452765.1040092,478.5,604.5,-0.3,500.0,-126.0,-0.3366748193867272,643.711399041624,0.5767641067504883,0.384509414434433,1.302,0.43,-0.0015869140625,2.479,1.1,0.1697998046875
